EXPLAIN
TAG	EISPOT
TITLE	LABEL	Potentiostatic EIS	Test &Identifier
DATE	LABEL	11/20/2015	Date
TIME	LABEL	10:51:21	Time
NOTES	NOTES	2	&Notes...
	3mm micrometer spacing
	2mm plate spacing
PSTAT	PSTAT	REF600-24084	Potentiostat
VDC	POTEN	0.00000E+000	F	DC &Voltage (V)
FREQINIT	QUANT	1.00000E+006	Initial Fre&q. (Hz)
FREQFINAL	QUANT	1.00000E-001	Final Fre&q. (Hz)
PTSPERDEC	QUANT	5.00000E+000	Points/&decade
VAC	QUANT	1.00000E+001	AC &Voltage (mV rms)
AREA	QUANT	1.00000E+000	&Area (cm^2)
CONDIT	TWOPARAM	F	1.50000E+001	0.00000E+000	Conditionin&g	Time(s)	E(V)
DELAY	TWOPARAM	T	1.00000E+002	0.00000E+000	Init. De&lay	Time(s)	Stab.(mV/s)
SPEED	SELECTOR	1	&Optimize for:
ZGUESS	QUANT	1.00000E+001	E&stimated Z (ohms)
OCVCURVE	TABLE	387
	Pt	T	Vf	Vm	Ach	Over
	#	s	V vs. Ref.	V	V	bits
	0	0.258333	-8.21668E+000	-8.21668E+000	5.06047E-004	...........
	1	0.516667	-8.21672E+000	-8.21861E+000	5.03181E-004	...........
	2	0.775	-8.21694E+000	-8.22043E+000	5.00681E-004	...........
	3	1.03333	-8.21764E+000	-8.22535E+000	5.13714E-004	...........
	4	1.29167	-8.21916E+000	-8.23007E+000	5.06647E-004	...........
	5	1.55	-8.22176E+000	-8.23579E+000	5.01547E-004	...........
	6	1.80833	-8.22536E+000	-8.23486E+000	5.09914E-004	...........
	7	2.06667	-8.22917E+000	-8.23088E+000	5.17247E-004	...........
	8	2.325	-8.23184E+000	-8.22753E+000	5.02980E-004	...........
	9	2.58333	-8.23249E+000	-8.23020E+000	5.03914E-004	...........
	10	2.84167	-8.23166E+000	-8.23208E+000	5.17647E-004	...........
	11	3.1	-8.23079E+000	-8.23470E+000	5.16780E-004	...........
	12	3.35833	-8.23095E+000	-8.23620E+000	4.94914E-004	...........
	13	3.61667	-8.23223E+000	-8.24044E+000	4.99381E-004	...........
	14	3.875	-8.23377E+000	-8.21526E+000	5.10514E-004	...........
	15	4.13333	-8.23363E+000	-8.21974E+000	5.08047E-004	...........
	16	4.39167	-8.23369E+000	-8.38789E+000	4.97414E-004	...........
	17	4.65	-8.24500E+000	-8.35455E+000	5.00814E-004	...........
	18	4.90833	-8.27613E+000	-8.41567E+000	5.12480E-004	...........
	19	5.16667	-8.32120E+000	-8.49564E+000	5.05314E-004	...........
	20	5.425	-8.35351E+000	-7.61262E+000	4.97581E-004	...........
	21	5.68333	-8.31424E+000	-7.64724E+000	4.95647E-004	...........
	22	5.94167	-8.16303E+000	-7.68503E+000	5.11614E-004	...........
	23	6.2	-7.95672E+000	-7.82613E+000	5.09314E-004	...........
	24	6.45833	-7.79627E+000	-7.48801E+000	4.95614E-004	...........
	25	6.71667	-7.70576E+000	-7.38695E+000	4.98847E-004	...........
	26	6.975	-7.61703E+000	-6.47589E+000	5.07280E-004	...........
	27	7.23333	-7.43338E+000	-6.02003E+000	5.03314E-004	...........
	28	7.49167	-7.10568E+000	-5.98206E+000	4.94981E-004	...........
	29	7.75	-6.69360E+000	-5.93753E+000	5.00147E-004	...........
	30	8.00833	-6.32266E+000	-5.77496E+000	5.07114E-004	...........
	31	8.26667	-6.06662E+000	-5.78692E+000	5.02314E-004	...........
	32	8.525	-5.91562E+000	-5.76868E+000	4.99781E-004	...........
	33	8.78333	-5.83246E+000	-5.74778E+000	5.04747E-004	...........
	34	9.04167	-5.79048E+000	-5.83351E+000	5.06014E-004	...........
	35	9.3	-5.77508E+000	-5.75245E+000	4.93514E-004	...........
	36	9.5583	-5.77383E+000	-5.72174E+000	4.98914E-004	...........
	37	9.8167	-5.77163E+000	-5.73835E+000	5.06680E-004	...........
	38	10.075	-5.76009E+000	-5.68049E+000	5.07347E-004	...........
	39	10.3333	-5.74091E+000	-5.65008E+000	4.99881E-004	...........
	40	10.5917	-5.71698E+000	-5.65243E+000	4.98847E-004	...........
	41	10.85	-5.69100E+000	-5.62293E+000	5.08614E-004	...........
	42	11.1083	-5.66698E+000	-5.61635E+000	5.05647E-004	...........
	43	11.3667	-5.64694E+000	-5.60281E+000	5.02280E-004	...........
	44	11.625	-5.63062E+000	-5.60022E+000	5.01647E-004	...........
	45	11.8833	-5.61779E+000	-5.60292E+000	5.09314E-004	...........
	46	12.1417	-5.60885E+000	-5.60114E+000	5.05547E-004	...........
	47	12.4	-5.60386E+000	-5.60235E+000	5.02314E-004	...........
	48	12.6583	-5.60189E+000	-5.60277E+000	5.02280E-004	...........
	49	12.9167	-5.60162E+000	-5.60440E+000	5.03647E-004	...........
	50	13.175	-5.60218E+000	-5.60721E+000	5.00147E-004	...........
	51	13.4333	-5.60326E+000	-5.60842E+000	4.97481E-004	...........
	52	13.6917	-5.60479E+000	-5.61138E+000	4.99714E-004	...........
	53	13.95	-5.60670E+000	-5.61583E+000	5.10314E-004	...........
	54	14.2083	-5.60907E+000	-5.61965E+000	5.03814E-004	...........
	55	14.4667	-5.61198E+000	-5.62221E+000	5.00047E-004	...........
	56	14.725	-5.61531E+000	-5.62573E+000	5.14880E-004	...........
	57	14.9833	-5.61877E+000	-5.62946E+000	5.11014E-004	...........
	58	15.2417	-5.62218E+000	-5.63183E+000	5.00581E-004	...........
	59	15.5	-5.62547E+000	-5.63311E+000	4.97947E-004	...........
	60	15.7583	-5.62848E+000	-5.63596E+000	5.07614E-004	...........
	61	16.0167	-5.63115E+000	-5.64065E+000	5.09780E-004	...........
	62	16.275	-5.63378E+000	-5.64450E+000	4.96681E-004	...........
	63	16.5333	-5.63678E+000	-5.64790E+000	4.98047E-004	...........
	64	16.7917	-5.64021E+000	-5.65135E+000	5.09947E-004	...........
	65	17.05	-5.64386E+000	-5.65457E+000	5.09047E-004	...........
	66	17.3083	-5.64743E+000	-5.65531E+000	4.94881E-004	...........
	67	17.5667	-5.65062E+000	-5.65659E+000	4.93747E-004	...........
	68	17.825	-5.65321E+000	-5.65948E+000	5.09680E-004	...........
	69	18.0833	-5.65534E+000	-5.66343E+000	5.12714E-004	...........
	70	18.3417	-5.65746E+000	-5.66619E+000	5.05080E-004	...........
	71	18.6	-5.65991E+000	-5.66695E+000	5.08547E-004	...........
	72	18.8583	-5.66259E+000	-5.67123E+000	5.10647E-004	...........
	73	19.1167	-5.66531E+000	-5.67715E+000	5.05714E-004	...........
	74	19.375	-5.66844E+000	-5.68649E+000	5.03547E-004	...........
	75	19.6333	-5.67259E+000	-5.68898E+000	5.05547E-004	...........
	76	19.8917	-5.67777E+000	-5.69214E+000	5.14880E-004	...........
	77	20.15	-5.68312E+000	-5.69395E+000	5.01447E-004	...........
	78	20.4083	-5.68769E+000	-5.69548E+000	4.99381E-004	...........
	79	20.6667	-5.69114E+000	-5.69899E+000	5.06947E-004	...........
	80	20.925	-5.69383E+000	-5.70299E+000	5.03714E-004	...........
	81	21.1833	-5.69639E+000	-5.70620E+000	4.97381E-004	...........
	82	21.4417	-5.69926E+000	-5.70951E+000	4.96314E-004	...........
	83	21.7	-5.70247E+000	-5.71279E+000	5.09114E-004	...........
	84	21.9583	-5.70582E+000	-5.71538E+000	5.01914E-004	...........
	85	22.2167	-5.70911E+000	-5.71826E+000	4.95414E-004	...........
	86	22.475	-5.71223E+000	-5.72110E+000	4.94081E-004	...........
	87	22.7333	-5.71520E+000	-5.72402E+000	5.07914E-004	...........
	88	22.9917	-5.71808E+000	-5.72722E+000	5.11180E-004	...........
	89	23.25	-5.72097E+000	-5.73058E+000	4.96581E-004	...........
	90	23.5083	-5.72396E+000	-5.73343E+000	4.97681E-004	...........
	91	23.7667	-5.72703E+000	-5.73643E+000	5.15814E-004	...........
	92	24.025	-5.73013E+000	-5.74003E+000	5.09180E-004	...........
	93	24.2833	-5.73330E+000	-5.74534E+000	4.98581E-004	...........
	94	24.5417	-5.73671E+000	-5.74977E+000	5.06714E-004	...........
	95	24.8	-5.74053E+000	-5.75297E+000	5.13747E-004	...........
	96	25.0583	-5.74466E+000	-5.75732E+000	5.07347E-004	...........
	97	25.3167	-5.74885E+000	-5.76184E+000	4.99547E-004	...........
	98	25.575	-5.75299E+000	-5.76536E+000	5.03280E-004	...........
	99	25.8333	-5.75708E+000	-5.76847E+000	5.08880E-004	...........
	100	26.0917	-5.76103E+000	-5.77155E+000	4.98147E-004	...........
	101	26.35	-5.76472E+000	-5.77473E+000	4.98547E-004	...........
	102	26.6083	-5.76814E+000	-5.77795E+000	5.04614E-004	...........
	103	26.8667	-5.77138E+000	-5.78145E+000	5.06714E-004	...........
	104	27.125	-5.77460E+000	-5.78536E+000	5.01447E-004	...........
	105	27.3833	-5.77790E+000	-5.78842E+000	5.01314E-004	...........
	106	27.6417	-5.78131E+000	-5.79140E+000	5.10114E-004	...........
	107	27.9	-5.78471E+000	-5.79444E+000	5.09614E-004	...........
	108	28.1583	-5.78799E+000	-5.79715E+000	5.00114E-004	...........
	109	28.4167	-5.79111E+000	-5.79993E+000	5.01781E-004	...........
	110	28.675	-5.79408E+000	-5.80281E+000	5.12647E-004	...........
	111	28.9333	-5.79695E+000	-5.80576E+000	5.08580E-004	...........
	112	29.1917	-5.79979E+000	-5.80866E+000	4.97481E-004	...........
	113	29.45	-5.80265E+000	-5.81170E+000	4.89347E-004	...........
	114	29.7083	-5.80555E+000	-5.81473E+000	5.08480E-004	...........
	115	29.9667	-5.80849E+000	-5.81759E+000	5.01081E-004	...........
	116	30.225	-5.81145E+000	-5.82037E+000	4.92781E-004	...........
	117	30.4833	-5.81440E+000	-5.82328E+000	4.97147E-004	...........
	118	30.7417	-5.81732E+000	-5.82624E+000	5.05480E-004	...........
	119	31	-5.82021E+000	-5.82930E+000	4.98814E-004	...........
	120	31.2583	-5.82312E+000	-5.83242E+000	4.97747E-004	...........
	121	31.5167	-5.82609E+000	-5.83576E+000	5.03714E-004	...........
	122	31.775	-5.82914E+000	-5.83898E+000	5.07547E-004	...........
	123	32.0333	-5.83227E+000	-5.84214E+000	4.97581E-004	...........
	124	32.2917	-5.83546E+000	-5.84512E+000	4.94581E-004	...........
	125	32.55	-5.83864E+000	-5.84742E+000	5.11647E-004	...........
	126	32.8083	-5.84170E+000	-5.84989E+000	5.04680E-004	...........
	127	33.0667	-5.84456E+000	-5.85241E+000	4.96747E-004	...........
	128	33.325	-5.84722E+000	-5.85518E+000	4.94381E-004	...........
	129	33.5833	-5.84979E+000	-5.85810E+000	5.11147E-004	...........
	130	33.8417	-5.85239E+000	-5.86114E+000	5.11814E-004	...........
	131	34.1	-5.85511E+000	-5.86401E+000	5.00614E-004	...........
	132	34.3583	-5.85794E+000	-5.86713E+000	4.98547E-004	...........
	133	34.6167	-5.86087E+000	-5.87029E+000	5.11947E-004	...........
	134	34.875	-5.86387E+000	-5.87342E+000	5.12614E-004	...........
	135	35.1333	-5.86693E+000	-5.87642E+000	5.00281E-004	...........
	136	35.3917	-5.87002E+000	-5.87937E+000	4.96014E-004	...........
	137	35.65	-5.87310E+000	-5.88221E+000	5.06847E-004	...........
	138	35.9083	-5.87612E+000	-5.88527E+000	5.10014E-004	...........
	139	36.1667	-5.87910E+000	-5.88802E+000	5.04514E-004	...........
	140	36.425	-5.88204E+000	-5.89087E+000	5.12647E-004	...........
	141	36.6833	-5.88494E+000	-5.89390E+000	5.14014E-004	...........
	142	36.9417	-5.88783E+000	-5.89669E+000	5.07280E-004	...........
	143	37.2	-5.89072E+000	-5.89983E+000	5.01781E-004	...........
	144	37.4583	-5.89363E+000	-5.90268E+000	5.10247E-004	...........
	145	37.7167	-5.89657E+000	-5.90569E+000	5.13914E-004	...........
	146	37.975	-5.89952E+000	-5.90837E+000	4.99147E-004	...........
	147	38.2333	-5.90245E+000	-5.91109E+000	5.01981E-004	...........
	148	38.4917	-5.90532E+000	-5.91366E+000	5.12714E-004	...........
	149	38.75	-5.90812E+000	-5.91684E+000	5.09947E-004	...........
	150	39.0083	-5.91088E+000	-5.91962E+000	4.94314E-004	...........
	151	39.2667	-5.91368E+000	-5.92247E+000	5.01247E-004	...........
	152	39.525	-5.91653E+000	-5.92575E+000	5.04747E-004	...........
	153	39.7833	-5.91945E+000	-5.92963E+000	5.05247E-004	...........
	154	40.0417	-5.92251E+000	-5.93226E+000	4.97981E-004	...........
	155	40.3	-5.92569E+000	-5.93548E+000	4.96881E-004	...........
	156	40.5583	-5.92892E+000	-5.93831E+000	5.07614E-004	...........
	157	40.8167	-5.93208E+000	-5.94167E+000	5.01381E-004	...........
	158	41.075	-5.93517E+000	-5.94478E+000	4.96447E-004	...........
	159	41.3333	-5.93827E+000	-5.94794E+000	4.99081E-004	...........
	160	41.5917	-5.94139E+000	-5.95114E+000	5.07847E-004	...........
	161	41.85	-5.94454E+000	-5.95418E+000	5.08514E-004	...........
	162	42.1083	-5.94769E+000	-5.95704E+000	4.98114E-004	...........
	163	42.3667	-5.95080E+000	-5.95986E+000	5.03514E-004	...........
	164	42.625	-5.95383E+000	-5.96276E+000	5.14514E-004	...........
	165	42.8833	-5.95678E+000	-5.96550E+000	5.07014E-004	...........
	166	43.1417	-5.95966E+000	-5.96832E+000	4.98314E-004	...........
	167	43.4	-5.96250E+000	-5.97126E+000	5.05580E-004	...........
	168	43.6583	-5.96532E+000	-5.97389E+000	5.03181E-004	...........
	169	43.9167	-5.96814E+000	-5.97683E+000	5.02647E-004	...........
	170	44.175	-5.97095E+000	-5.97968E+000	4.97614E-004	...........
	171	44.4333	-5.97377E+000	-5.98255E+000	5.07747E-004	...........
	172	44.6917	-5.97661E+000	-5.98542E+000	5.02380E-004	...........
	173	44.95	-5.97945E+000	-5.98779E+000	4.95681E-004	...........
	174	45.2083	-5.98227E+000	-5.99087E+000	4.98314E-004	...........
	175	45.4667	-5.98505E+000	-5.99382E+000	5.11047E-004	...........
	176	45.725	-5.98784E+000	-5.99657E+000	5.08647E-004	...........
	177	45.9833	-5.99066E+000	-5.99935E+000	4.96747E-004	...........
	178	46.2417	-5.99350E+000	-6.00212E+000	5.05047E-004	...........
	179	46.5	-5.99633E+000	-6.00499E+000	5.13347E-004	...........
	180	46.7583	-5.99914E+000	-6.00802E+000	5.11747E-004	...........
	181	47.0167	-6.00197E+000	-6.01065E+000	4.97581E-004	...........
	182	47.275	-6.00481E+000	-6.01339E+000	5.00614E-004	...........
	183	47.5333	-6.00765E+000	-6.01640E+000	5.03747E-004	...........
	184	47.7917	-6.01047E+000	-6.01950E+000	5.04114E-004	...........
	185	48.05	-6.01333E+000	-6.02256E+000	4.98114E-004	...........
	186	48.3083	-6.01626E+000	-6.02579E+000	5.05047E-004	...........
	187	48.5667	-6.01928E+000	-6.02881E+000	5.11247E-004	...........
	188	48.825	-6.02237E+000	-6.03203E+000	5.04647E-004	...........
	189	49.0833	-6.02549E+000	-6.03545E+000	4.95047E-004	...........
	190	49.3417	-6.02866E+000	-6.03873E+000	5.02814E-004	...........
	191	49.6	-6.03189E+000	-6.04212E+000	5.08147E-004	...........
	192	49.8583	-6.03522E+000	-6.04787E+000	4.96347E-004	...........
	193	50.1167	-6.03883E+000	-6.05397E+000	4.99847E-004	...........
	194	50.375	-6.04311E+000	-6.06384E+000	5.10880E-004	...........
	195	50.6333	-6.04853E+000	-6.07485E+000	5.11580E-004	...........
	196	50.8917	-6.05569E+000	-6.09395E+000	5.03647E-004	...........
	197	51.15	-6.06572E+000	-6.13424E+000	5.00314E-004	...........
	198	51.4083	-6.08053E+000	-6.15318E+000	5.12747E-004	...........
	199	51.6667	-6.10158E+000	-6.20862E+000	5.05014E-004	...........
	200	51.925	-6.13063E+000	-6.32154E+000	5.00747E-004	...........
	201	52.1833	-6.17130E+000	-6.33014E+000	5.07247E-004	...........
	202	52.4417	-6.22354E+000	-6.38948E+000	5.09780E-004	...........
	203	52.7	-6.28654E+000	-6.77529E+000	5.13614E-004	...........
	204	52.9583	-6.37304E+000	-6.76762E+000	5.03614E-004	...........
	205	53.2167	-6.49149E+000	-6.75439E+000	5.05880E-004	...........
	206	53.475	-6.62076E+000	-7.05831E+000	5.20014E-004	...........
	207	53.7333	-6.74231E+000	-7.18163E+000	5.15514E-004	...........
	208	53.9917	-6.86240E+000	-7.04620E+000	5.08247E-004	...........
	209	54.25	-6.97392E+000	-7.08097E+000	5.06480E-004	...........
	210	54.5083	-7.04983E+000	-7.09848E+000	5.19580E-004	...........
	211	54.7667	-7.08318E+000	-7.08534E+000	5.09547E-004	...........
	212	55.025	-7.09421E+000	-7.22473E+000	5.02780E-004	...........
	213	55.2833	-7.10790E+000	-7.23379E+000	5.11047E-004	...........
	214	55.5417	-7.13479E+000	-7.10452E+000	5.09847E-004	...........
	215	55.8	-7.15137E+000	-6.61688E+000	5.04847E-004	...........
	216	56.0583	-7.10583E+000	-6.55376E+000	5.01947E-004	...........
	217	56.3167	-6.97190E+000	-6.40675E+000	5.16747E-004	...........
	218	56.575	-6.78531E+000	-6.36470E+000	5.14914E-004	...........
	219	56.8333	-6.60656E+000	-6.30642E+000	5.05280E-004	...........
	220	57.0917	-6.46998E+000	-6.25940E+000	4.99547E-004	...........
	221	57.35	-6.37669E+000	-6.21826E+000	5.08647E-004	...........
	222	57.6083	-6.31303E+000	-6.20345E+000	5.11247E-004	...........
	223	57.8667	-6.26683E+000	-6.18264E+000	5.01114E-004	...........
	224	58.125	-6.23226E+000	-6.17087E+000	4.96981E-004	...........
	225	58.3833	-6.20666E+000	-6.16443E+000	5.17480E-004	...........
	226	58.6417	-6.18794E+000	-6.14943E+000	5.11380E-004	...........
	227	58.9	-6.17392E+000	-6.14276E+000	4.98247E-004	...........
	228	59.1583	-6.16274E+000	-6.14442E+000	5.03147E-004	...........
	229	59.4167	-6.15391E+000	-6.14429E+000	5.14514E-004	...........
	230	59.675	-6.14800E+000	-6.14455E+000	5.08714E-004	...........
	231	59.9333	-6.14509E+000	-6.14690E+000	4.96381E-004	...........
	232	60.1917	-6.14439E+000	-6.14618E+000	5.04480E-004	...........
	233	60.45	-6.14484E+000	-6.14684E+000	5.08914E-004	...........
	234	60.7083	-6.14567E+000	-6.14981E+000	5.07480E-004	...........
	235	60.9667	-6.14666E+000	-6.15393E+000	4.94481E-004	...........
	236	61.225	-6.14816E+000	-6.15693E+000	5.04314E-004	...........
	237	61.4833	-6.15042E+000	-6.15959E+000	5.06447E-004	...........
	238	61.7417	-6.15327E+000	-6.16237E+000	4.94347E-004	...........
	239	62	-6.15631E+000	-6.16509E+000	4.92081E-004	...........
	240	62.2583	-6.15928E+000	-6.16794E+000	5.00314E-004	...........
	241	62.5167	-6.16214E+000	-6.17075E+000	5.08380E-004	...........
	242	62.775	-6.16494E+000	-6.17339E+000	4.96914E-004	...........
	243	63.0333	-6.16771E+000	-6.17613E+000	4.99947E-004	...........
	244	63.2917	-6.17047E+000	-6.17887E+000	5.10080E-004	...........
	245	63.55	-6.17320E+000	-6.18141E+000	5.12647E-004	...........
	246	63.8083	-6.17591E+000	-6.18426E+000	5.02080E-004	...........
	247	64.0667	-6.17860E+000	-6.18666E+000	5.02947E-004	...........
	248	64.325	-6.18127E+000	-6.18935E+000	5.14847E-004	...........
	249	64.5833	-6.18392E+000	-6.19219E+000	5.17880E-004	...........
	250	64.8417	-6.18656E+000	-6.19487E+000	5.01147E-004	...........
	251	65.1	-6.18923E+000	-6.19754E+000	5.05547E-004	...........
	252	65.3583	-6.19193E+000	-6.20024E+000	5.06714E-004	...........
	253	65.6167	-6.19464E+000	-6.20297E+000	5.04047E-004	...........
	254	65.875	-6.19734E+000	-6.20570E+000	5.03514E-004	...........
	255	66.1333	-6.20005E+000	-6.20847E+000	4.98681E-004	...........
	256	66.3917	-6.20277E+000	-6.21086E+000	5.09914E-004	...........
	257	66.65	-6.20546E+000	-6.21334E+000	5.10447E-004	...........
	258	66.9083	-6.20810E+000	-6.21608E+000	4.99514E-004	...........
	259	67.1667	-6.21068E+000	-6.21859E+000	5.09280E-004	...........
	260	67.425	-6.21325E+000	-6.22119E+000	5.12647E-004	...........
	261	67.6833	-6.21582E+000	-6.22347E+000	5.02114E-004	...........
	262	67.9417	-6.21837E+000	-6.22597E+000	5.03714E-004	...........
	263	68.2	-6.22088E+000	-6.22850E+000	5.10280E-004	...........
	264	68.4583	-6.22335E+000	-6.23089E+000	5.12880E-004	...........
	265	68.7167	-6.22581E+000	-6.23339E+000	4.93681E-004	...........
	266	68.975	-6.22827E+000	-6.23612E+000	5.04280E-004	...........
	267	69.2333	-6.23077E+000	-6.23892E+000	5.09980E-004	...........
	268	69.4917	-6.23333E+000	-6.24152E+000	5.13180E-004	...........
	269	69.75	-6.23596E+000	-6.24415E+000	5.03980E-004	...........
	270	70.0083	-6.23863E+000	-6.24678E+000	5.02480E-004	...........
	271	70.2667	-6.24130E+000	-6.24982E+000	5.11380E-004	...........
	272	70.525	-6.24399E+000	-6.25250E+000	5.12380E-004	...........
	273	70.7833	-6.24673E+000	-6.25551E+000	5.07214E-004	...........
	274	71.0417	-6.24956E+000	-6.25999E+000	4.98214E-004	...........
	275	71.3	-6.25264E+000	-6.26677E+000	5.12747E-004	...........
	276	71.5583	-6.25628E+000	-6.27067E+000	5.06047E-004	...........
	277	71.8167	-6.26058E+000	-6.27365E+000	5.01447E-004	...........
	278	72.075	-6.26514E+000	-6.27625E+000	5.05647E-004	...........
	279	72.3333	-6.26936E+000	-6.27871E+000	5.08780E-004	...........
	280	72.5917	-6.27294E+000	-6.28140E+000	5.07247E-004	...........
	281	72.85	-6.27596E+000	-6.28413E+000	5.01614E-004	...........
	282	73.1083	-6.27867E+000	-6.28693E+000	5.08080E-004	...........
	283	73.3667	-6.28131E+000	-6.28961E+000	5.08947E-004	...........
	284	73.625	-6.28396E+000	-6.29178E+000	5.02947E-004	...........
	285	73.8833	-6.28660E+000	-6.29406E+000	4.97347E-004	...........
	286	74.1417	-6.28915E+000	-6.29665E+000	5.08680E-004	...........
	287	74.4	-6.29161E+000	-6.29922E+000	5.07014E-004	...........
	288	74.6583	-6.29404E+000	-6.30187E+000	5.01981E-004	...........
	289	74.9167	-6.29652E+000	-6.30440E+000	5.05047E-004	...........
	290	75.175	-6.29906E+000	-6.30725E+000	5.14414E-004	...........
	291	75.4333	-6.30165E+000	-6.30966E+000	5.12047E-004	...........
	292	75.6917	-6.30427E+000	-6.31217E+000	5.00214E-004	...........
	293	75.95	-6.30688E+000	-6.31489E+000	5.00014E-004	...........
	294	76.2083	-6.30948E+000	-6.31752E+000	5.09280E-004	...........
	295	76.4667	-6.31207E+000	-6.32015E+000	5.11814E-004	...........
	296	76.725	-6.31468E+000	-6.32285E+000	4.99147E-004	...........
	297	76.9833	-6.31732E+000	-6.32546E+000	5.03614E-004	...........
	298	77.2417	-6.31997E+000	-6.32832E+000	5.07447E-004	...........
	299	77.5	-6.32264E+000	-6.33084E+000	5.08680E-004	...........
	300	77.7583	-6.32532E+000	-6.33336E+000	5.04214E-004	...........
	301	78.0167	-6.32798E+000	-6.33593E+000	5.05847E-004	...........
	302	78.275	-6.33061E+000	-6.33925E+000	5.10114E-004	...........
	303	78.5333	-6.33327E+000	-6.34194E+000	5.06280E-004	...........
	304	78.7917	-6.33601E+000	-6.34440E+000	5.02314E-004	...........
	305	79.05	-6.33880E+000	-6.34708E+000	5.16247E-004	...........
	306	79.3083	-6.34155E+000	-6.34941E+000	5.16180E-004	...........
	307	79.5667	-6.34420E+000	-6.35192E+000	5.06247E-004	...........
	308	79.825	-6.34676E+000	-6.35432E+000	5.01514E-004	...........
	309	80.0833	-6.34926E+000	-6.35684E+000	5.09280E-004	...........
	310	80.3417	-6.35173E+000	-6.35956E+000	5.08014E-004	...........
	311	80.6	-6.35421E+000	-6.36220E+000	4.95214E-004	...........
	312	80.8583	-6.35675E+000	-6.36465E+000	4.96847E-004	...........
	313	81.1167	-6.35933E+000	-6.36743E+000	5.08847E-004	...........
	314	81.375	-6.36194E+000	-6.37001E+000	5.05547E-004	...........
	315	81.6333	-6.36456E+000	-6.37275E+000	4.94847E-004	...........
	316	81.8917	-6.36718E+000	-6.37495E+000	4.98581E-004	...........
	317	82.15	-6.36980E+000	-6.37756E+000	5.06347E-004	...........
	318	82.4083	-6.37236E+000	-6.38019E+000	5.03214E-004	...........
	319	82.6667	-6.37489E+000	-6.38318E+000	4.98014E-004	...........
	320	82.925	-6.37750E+000	-6.38706E+000	4.98514E-004	...........
	321	83.1833	-6.38026E+000	-6.38862E+000	5.04647E-004	...........
	322	83.4417	-6.38309E+000	-6.38883E+000	5.08280E-004	...........
	323	83.7	-6.38563E+000	-6.38962E+000	5.03614E-004	...........
	324	83.9583	-6.38757E+000	-6.39202E+000	5.05614E-004	...........
	325	84.2167	-6.38899E+000	-6.39266E+000	5.09380E-004	...........
	326	84.475	-6.39023E+000	-6.39466E+000	5.03414E-004	...........
	327	84.7333	-6.39154E+000	-6.39671E+000	5.03580E-004	...........
	328	84.9917	-6.39302E+000	-6.39902E+000	5.11914E-004	...........
	329	85.25	-6.39475E+000	-6.40179E+000	5.10947E-004	...........
	330	85.5083	-6.39676E+000	-6.40398E+000	5.01614E-004	...........
	331	85.7667	-6.39900E+000	-6.40556E+000	4.96881E-004	...........
	332	86.025	-6.40130E+000	-6.40840E+000	5.15647E-004	...........
	333	86.2833	-6.40359E+000	-6.41146E+000	5.08614E-004	...........
	334	86.5417	-6.40593E+000	-6.41404E+000	4.97381E-004	...........
	335	86.8	-6.40843E+000	-6.41656E+000	4.93747E-004	...........
	336	87.0583	-6.41106E+000	-6.41897E+000	5.07480E-004	...........
	337	87.3167	-6.41370E+000	-6.42165E+000	5.13414E-004	...........
	338	87.575	-6.41631E+000	-6.42427E+000	5.02380E-004	...........
	339	87.8333	-6.41888E+000	-6.42689E+000	5.03680E-004	...........
	340	88.0917	-6.42147E+000	-6.42956E+000	5.06114E-004	...........
	341	88.35	-6.42407E+000	-6.43193E+000	5.09347E-004	...........
	342	88.6083	-6.42668E+000	-6.43481E+000	5.03714E-004	...........
	343	88.8667	-6.42928E+000	-6.43735E+000	5.02647E-004	...........
	344	89.125	-6.43188E+000	-6.43959E+000	5.06414E-004	...........
	345	89.3833	-6.43447E+000	-6.44184E+000	5.07614E-004	...........
	346	89.6417	-6.43696E+000	-6.44392E+000	5.01281E-004	...........
	347	89.9	-6.43934E+000	-6.44607E+000	5.06614E-004	...........
	348	90.1583	-6.44160E+000	-6.44869E+000	5.11380E-004	...........
	349	90.4167	-6.44384E+000	-6.45118E+000	5.07747E-004	...........
	350	90.675	-6.44613E+000	-6.45366E+000	5.03914E-004	...........
	351	90.9333	-6.44852E+000	-6.45657E+000	5.08980E-004	...........
	352	91.1917	-6.45102E+000	-6.45916E+000	5.12047E-004	...........
	353	91.45	-6.45361E+000	-6.46163E+000	5.02347E-004	...........
	354	91.7083	-6.45625E+000	-6.46457E+000	4.97247E-004	...........
	355	91.9667	-6.45891E+000	-6.46725E+000	5.05280E-004	...........
	356	92.225	-6.46159E+000	-6.46991E+000	5.10080E-004	...........
	357	92.4833	-6.46430E+000	-6.47296E+000	4.96647E-004	...........
	358	92.7417	-6.46705E+000	-6.47578E+000	4.96681E-004	...........
	359	93	-6.46984E+000	-6.47854E+000	5.07814E-004	...........
	360	93.2583	-6.47272E+000	-6.48389E+000	5.10714E-004	...........
	361	93.5167	-6.47585E+000	-6.48893E+000	4.98047E-004	...........
	362	93.775	-6.47951E+000	-6.49498E+000	5.00447E-004	...........
	363	94.0333	-6.48387E+000	-6.49928E+000	5.05447E-004	...........
	364	94.2917	-6.48873E+000	-6.50196E+000	5.03614E-004	...........
	365	94.55	-6.49356E+000	-6.50473E+000	4.91081E-004	...........
	366	94.8083	-6.49785E+000	-6.50738E+000	4.97981E-004	...........
	367	95.067	-6.50143E+000	-6.50977E+000	5.12547E-004	...........
	368	95.325	-6.50444E+000	-6.51215E+000	5.05580E-004	...........
	369	95.583	-6.50710E+000	-6.51434E+000	4.99747E-004	...........
	370	95.842	-6.50956E+000	-6.51665E+000	4.96381E-004	...........
	371	96.1	-6.51191E+000	-6.51913E+000	4.99714E-004	...........
	372	96.358	-6.51423E+000	-6.52163E+000	5.03214E-004	...........
	373	96.617	-6.51658E+000	-6.52397E+000	4.97114E-004	...........
	374	96.875	-6.51896E+000	-6.52638E+000	5.10547E-004	...........
	375	97.133	-6.52137E+000	-6.52852E+000	5.09114E-004	...........
	376	97.392	-6.52376E+000	-6.53093E+000	4.97214E-004	...........
	377	97.65	-6.52611E+000	-6.53369E+000	4.95514E-004	...........
	378	97.908	-6.52850E+000	-6.53699E+000	5.07614E-004	...........
	379	98.167	-6.53103E+000	-6.54013E+000	5.10314E-004	...........
	380	98.425	-6.53376E+000	-6.54230E+000	4.92981E-004	...........
	381	98.683	-6.53662E+000	-6.54477E+000	4.96480E-004	...........
	382	98.942	-6.53953E+000	-6.55253E+000	5.07347E-004	...........
	383	99.2	-6.54275E+000	-6.55715E+000	5.08814E-004	...........
	384	99.458	-6.54665E+000	-6.55954E+000	4.88181E-004	...........
	385	99.717	-6.55105E+000	-6.56170E+000	4.92681E-004	...........
	386	99.975	-6.55524E+000	-6.56449E+000	5.03380E-004	...........
EOC	QUANT	-6.555243	Open Circuit (V)
PSTATMODEL	IQUANT	4	Pstat Model
PSTATSECTION	LABEL	REF600-24084	Pstat Section
PSTATSERIALNO	LABEL	24084	Pstat Serial Number
CTRLMODE	IQUANT	1	Control Mode
IESTAB	IQUANT	0	I/E Stability
CASPEED	IQUANT	1	Control Amp Speed
CONVENTION	IQUANT	1	Current Convention
ICHRANGE	IQUANT	2	Ich Range
ICHRANGEMODE	TOGGLE	F	Ich Auto Range
ICHOFFSETENABLE	TOGGLE	T	Ich Offset Enable
ICHOFFSET	QUANT	0	Ich Offset (V)
ICHFILTER	IQUANT	3	Ich Filter
VCHRANGE	IQUANT	2	Vch Range
VCHRANGEMODE	TOGGLE	F	Vch Auto Range
VCHOFFSETENABLE	TOGGLE	T	Vch Offset Enable
VCHOFFSET	QUANT	0	Vch Offset (V)
VCHFILTER	IQUANT	3	Vch Filter
ACHRANGE	IQUANT	2	Ach Range
ACHOFFSETENABLE	TOGGLE	F	Ach Offset Enable
ACHOFFSET	QUANT	0	Ach Offset (V)
ACHFILTER	IQUANT	1	Ach Filter
IERANGELOWERLIMIT	IQUANT	1	I/E Range Lower Limit
IERANGEMODE	TOGGLE	F	I/E AutoRange
IERANGE	IQUANT	1	I/E Range
POSFEEDENABLE	TOGGLE	F	Positive Feedback IR Comp
POSFEEDRESISTANCE	QUANT	0	Positive Feedback Resistance (ohm)
ACHSELECT	IQUANT	0	Ach Select
CABLEID	IQUANT	14	Cable ID
DCCALDATE	LABEL	7/17/2015	DC Calibration Date
ACCALDATE	LABEL	7/17/2015	AC Calibration Date
THERMOSELECT	IQUANT	1	Thermo Select
FRAMEWORKVERSION	QUANT	6.25	Framework Version
INSTRUMENTVERSION	LABEL	3.28	Instrument Version
ZCURVE	TABLE
	Pt	Time	Freq	Zreal	Zimag	Zsig	Zmod	Zphz	Idc	Vdc	IERange
	#	s	Hz	ohm	ohm	V	ohm	°	A	V	#
	0	2	1000078	-244.2718	-19269.49	1	19271.04	-90.72628	-2.640495E-006	0.0020098	8
	1	3	630984.4	-379.8857	-30210.15	1	30212.54	-90.72044	1.697027E-007	0.0019204	8
	2	5	398109.4	-368.2022	-47486.77	1	47488.2	-90.44425	-1.67421E-006	0.0017854	8
	3	7	251203.1	-89.72989	-75938.33	1	75938.38	-90.0677	-3.87521E-007	0.0015955	8
	4	8	158578.1	-1587.337	-119032	1	119042.6	-90.76402	-1.955456E-006	0.0015685	8
	5	10	100078.1	799.9971	-188970.8	1	188972.5	-89.75745	1.817894E-007	0.0005023	7
	6	12	63140.62	341.8031	-299395.1	1	299395.3	-89.93459	-5.790558E-007	0.0023615	7
	7	13	39890.62	-453.4827	-473353	1	473353.3	-90.05489	-5.784449E-007	0.0023605	7
	8	15	25171.88	9198.041	-752486.3	1	752542.5	-89.29967	-6.00279E-008	0.0020576	7
	9	17	15890.62	21220.58	-1197566	1	1197754	-88.98484	4.17283E-007	0.0014005	7
	10	18	10078.13	22240.34	-1876868	1	1877000	-89.32109	1.025058E-007	-0.0007239	6
	11	20	6328.125	98085.6	-3002051	1	3003652	-88.12865	1.315779E-007	0.0005503	6
	12	22	3984.375	-30137.84	-4593291	1	4593390	-90.37593	-1.602363E-007	0.0035043	6
	13	24	2527.573	120235.8	-7624094	1	7625042	-89.09649	-1.601717E-007	0.00351	6
	14	26	1577.524	373030.3	-1.175525E+007	1	1.176117E+007	-88.18244	-1.601331E-007	0.0035142	6
	15	27	998.264	-224474.1	-1.831119E+007	1	1.831257E+007	-90.70235	-8.722137E-009	0.0010815	5
	16	29	627.7902	-557342.3	-3.019791E+007	1	3.020305E+007	-91.05735	1.157205E-008	-0.000765	5
	17	31	397.9953	-165264	-4.828367E+007	1	4.828395E+007	-90.19611	-1.45014E-010	0.0014371	5
	18	32	252.4038	519049.8	-7.33013E+007	1	7.330314E+007	-89.59429	-1.539256E-010	0.0014316	5
	19	33	158.3615	-2221090	-1.200522E+008	1	1.200727E+008	-91.05991	-8.838835E-011	0.0014232	5
	20	35	100.4464	4164190	-1.905142E+008	1	1.905597E+008	-88.74785	-1.328688E-011	0.0014306	4
	21	37	63.3446	-2.658435E+007	-9.281266E+007	1	9.65449E+007	-105.9833	-3.319157E-012	0.0014201	4
	22	39	39.72458	2.481333E+008	-5.000955E+008	1	5.582702E+008	-63.61068	-1.672315E-011	0.0014254	4
	23	40	24.93351	-1.368889E+008	-8.268117E+008	1	8.380669E+008	-99.4007	-1.26842E-011	0.0014301	4
	24	42	15.83615	2.611284E+008	-5.237675E+008	1	5.852525E+008	-63.50109	-1.121688E-011	0.0014229	4
	25	44	9.93114	2.352957E+008	-1.439035E+009	1	1.458145E+009	-80.71378	-1.13533E-012	0.0014444	3
	26	45	6.317385	7.100951E+007	-2.993303E+009	1	2.994145E+009	-88.64104	3.039865E-013	0.0014319	3
	27	48	3.945707	-6.329752E+008	-3.00595E+009	1	3.071871E+009	-101.8913	-4.353688E-013	0.0014415	3
	28	52	2.504006	2.555262E+008	-7.275224E+009	1	7.27971E+009	-87.98844	5.686214E-013	0.0014407	3
	29	56	1.584686	-9.143896E+007	-1.175655E+010	1	1.17569E+010	-90.44562	6.584418E-013	0.0014531	3
	30	61	0.999041	5.333094E+008	-1.795468E+010	1	1.79626E+010	-88.29864	1.577305E-012	0.0014375	2
	31	67	0.633446	-5.519057E+009	-3.388422E+010	1	3.433075E+010	-99.2511	1.534827E-012	-1.24181E-005	2
	32	76	0.400641	-7.281576E+009	-2.697489E+009	1	7.765166E+009	-159.6727	1.808969E-012	-8.182707E-006	3
	33	125	0.2520161	4.065638E+009	-9.542863E+008	1	4.176132E+009	-13.20934	1.887511E-012	-1.933212E-005	2
	34	154	0.1588983	-4.475319E+009	-1.529264E+009	1	4.72939E+009	-161.1342	2.47362E-012	-3.043062E-005	2
	35	209	0.1001603	2.993936E+009	-1.249006E+010	1	1.284388E+010	-76.52022	2.263712E-012	-2.634177E-005	1
