EXPLAIN
TAG	EISPOT
TITLE	LABEL	Potentiostatic EIS	Test &Identifier
DATE	LABEL	11/20/2015	Date
TIME	LABEL	11:37:50	Time
NOTES	NOTES	2	&Notes...
	3mm micrometer spacing
	2mm plate spacing
PSTAT	PSTAT	REF600-24084	Potentiostat
VDC	POTEN	0.00000E+000	F	DC &Voltage (V)
FREQINIT	QUANT	1.00000E+006	Initial Fre&q. (Hz)
FREQFINAL	QUANT	1.00000E-001	Final Fre&q. (Hz)
PTSPERDEC	QUANT	5.00000E+000	Points/&decade
VAC	QUANT	1.00000E+001	AC &Voltage (mV rms)
AREA	QUANT	1.00000E+000	&Area (cm^2)
CONDIT	TWOPARAM	F	1.50000E+001	0.00000E+000	Conditionin&g	Time(s)	E(V)
DELAY	TWOPARAM	T	1.00000E+002	0.00000E+000	Init. De&lay	Time(s)	Stab.(mV/s)
SPEED	SELECTOR	1	&Optimize for:
ZGUESS	QUANT	1.00000E+001	E&stimated Z (ohms)
OCVCURVE	TABLE	387
	Pt	T	Vf	Vm	Ach	Over
	#	s	V vs. Ref.	V	V	bits
	0	0.258333	1.11985E-001	1.11985E-001	5.62482E-004	...........
	1	0.516667	1.11988E-001	1.12138E-001	5.65082E-004	...........
	2	0.775	1.12004E-001	1.12205E-001	5.60715E-004	...........
	3	1.03333	1.12046E-001	1.12272E-001	5.55882E-004	...........
	4	1.29167	1.12111E-001	1.12331E-001	5.62915E-004	...........
	5	1.55	1.12184E-001	1.12325E-001	5.70849E-004	...........
	6	1.80833	1.12249E-001	1.12330E-001	5.57649E-004	...........
	7	2.06667	1.12295E-001	1.12360E-001	5.59182E-004	...........
	8	2.325	1.12321E-001	1.12264E-001	5.67382E-004	...........
	9	2.58333	1.12328E-001	1.12287E-001	5.69115E-004	...........
	10	2.84167	1.12317E-001	1.12124E-001	5.60049E-004	...........
	11	3.1	1.12286E-001	1.12160E-001	5.55316E-004	...........
	12	3.35833	1.12241E-001	1.12099E-001	5.59249E-004	...........
	13	3.61667	1.12191E-001	1.12065E-001	5.65515E-004	...........
	14	3.875	1.12148E-001	1.12168E-001	5.52616E-004	...........
	15	4.13333	1.12124E-001	1.12262E-001	5.48449E-004	...........
	16	4.39167	1.12131E-001	1.12251E-001	5.64582E-004	...........
	17	4.65	1.12164E-001	1.12210E-001	5.59815E-004	...........
	18	4.90833	1.12201E-001	1.12200E-001	5.55716E-004	...........
	19	5.16667	1.12221E-001	1.12271E-001	5.55182E-004	...........
	20	5.425	1.12228E-001	1.12236E-001	5.62082E-004	...........
	21	5.68333	1.12233E-001	1.12299E-001	5.57449E-004	...........
	22	5.94167	1.12244E-001	1.12264E-001	5.47916E-004	...........
	23	6.2	1.12259E-001	1.12413E-001	5.53982E-004	...........
	24	6.45833	1.12283E-001	1.12391E-001	5.56782E-004	...........
	25	6.71667	1.12317E-001	1.12418E-001	5.58582E-004	...........
	26	6.975	1.12356E-001	1.12459E-001	5.55082E-004	...........
	27	7.23333	1.12390E-001	1.12384E-001	5.59649E-004	...........
	28	7.49167	1.12411E-001	1.12367E-001	5.63182E-004	...........
	29	7.75	1.12413E-001	1.12357E-001	5.60549E-004	...........
	30	8.00833	1.12402E-001	1.12472E-001	5.59649E-004	...........
	31	8.26667	1.12395E-001	1.12491E-001	5.69115E-004	...........
	32	8.525	1.12410E-001	1.12561E-001	5.64882E-004	...........
	33	8.78333	1.12442E-001	1.12410E-001	5.62049E-004	...........
	34	9.04167	1.12466E-001	1.12167E-001	5.54649E-004	...........
	35	9.3	1.12443E-001	1.12021E-001	5.66982E-004	...........
	36	9.5583	1.12362E-001	1.12295E-001	5.65615E-004	...........
	37	9.8167	1.12269E-001	1.12448E-001	5.53682E-004	...........
	38	10.075	1.12233E-001	1.12406E-001	5.61382E-004	...........
	39	10.3333	1.12271E-001	1.12459E-001	5.67782E-004	...........
	40	10.5917	1.12340E-001	1.12432E-001	5.67449E-004	...........
	41	10.85	1.12394E-001	1.12240E-001	5.58049E-004	...........
	42	11.1083	1.12407E-001	1.12299E-001	5.57015E-004	...........
	43	11.3667	1.12380E-001	1.12321E-001	5.63882E-004	...........
	44	11.625	1.12337E-001	1.12068E-001	5.63782E-004	...........
	45	11.8833	1.12288E-001	1.12140E-001	5.56649E-004	...........
	46	12.1417	1.12232E-001	1.12061E-001	5.62782E-004	...........
	47	12.4	1.12164E-001	1.11612E-001	5.68349E-004	...........
	48	12.6583	1.12068E-001	1.11521E-001	5.64049E-004	...........
	49	12.9167	1.11925E-001	1.11478E-001	5.58615E-004	...........
	50	13.175	1.11742E-001	1.10715E-001	5.59682E-004	...........
	51	13.4333	1.11540E-001	1.11553E-001	5.64015E-004	...........
	52	13.6917	1.11378E-001	1.12199E-001	5.59882E-004	...........
	53	13.95	1.11382E-001	1.12594E-001	5.54282E-004	...........
	54	14.2083	1.11619E-001	1.12807E-001	5.68115E-004	...........
	55	14.4667	1.12003E-001	1.12924E-001	5.63415E-004	...........
	56	14.725	1.12388E-001	1.13009E-001	5.52416E-004	...........
	57	14.9833	1.12683E-001	1.13063E-001	5.59449E-004	...........
	58	15.2417	1.12875E-001	1.13159E-001	5.56282E-004	...........
	59	15.5	1.12992E-001	1.13114E-001	5.66715E-004	...........
	60	15.7583	1.13064E-001	1.13107E-001	5.59182E-004	...........
	61	16.0167	1.13105E-001	1.13240E-001	5.59115E-004	...........
	62	16.275	1.13132E-001	1.13215E-001	5.66215E-004	...........
	63	16.5333	1.13160E-001	1.13322E-001	5.67115E-004	...........
	64	16.7917	1.13198E-001	1.13309E-001	5.61249E-004	...........
	65	17.05	1.13240E-001	1.13332E-001	5.62382E-004	...........
	66	17.3083	1.13279E-001	1.13350E-001	5.66949E-004	...........
	67	17.5667	1.13307E-001	1.13280E-001	5.67082E-004	...........
	68	17.825	1.13321E-001	1.13307E-001	5.60649E-004	...........
	69	18.0833	1.13319E-001	1.13229E-001	5.56349E-004	...........
	70	18.3417	1.13303E-001	1.13155E-001	5.59482E-004	...........
	71	18.6	1.13275E-001	1.13289E-001	5.61849E-004	...........
	72	18.8583	1.13247E-001	1.13244E-001	5.56016E-004	...........
	73	19.1167	1.13234E-001	1.13199E-001	5.63615E-004	...........
	74	19.375	1.13230E-001	1.13162E-001	5.70882E-004	...........
	75	19.6333	1.13222E-001	1.13144E-001	5.64649E-004	...........
	76	19.8917	1.13199E-001	1.12962E-001	5.61015E-004	...........
	77	20.15	1.13161E-001	1.13158E-001	5.72649E-004	...........
	78	20.4083	1.13124E-001	1.13313E-001	5.76215E-004	...........
	79	20.6667	1.13119E-001	1.13199E-001	5.64415E-004	...........
	80	20.925	1.13151E-001	1.13201E-001	5.58482E-004	...........
	81	21.1833	1.13190E-001	1.13199E-001	5.67915E-004	...........
	82	21.4417	1.13208E-001	1.13138E-001	5.69782E-004	...........
	83	21.7	1.13205E-001	1.13203E-001	5.57316E-004	...........
	84	21.9583	1.13192E-001	1.13165E-001	5.59215E-004	...........
	85	22.2167	1.13182E-001	1.13221E-001	5.66015E-004	...........
	86	22.475	1.13181E-001	1.13188E-001	5.71915E-004	...........
	87	22.7333	1.13186E-001	1.13163E-001	5.63482E-004	...........
	88	22.9917	1.13190E-001	1.13220E-001	5.59382E-004	...........
	89	23.25	1.13172E-001	1.12219E-001	5.65749E-004	...........
	90	23.5083	1.13099E-001	1.13391E-001	5.67282E-004	...........
	91	23.7667	1.13011E-001	1.13818E-001	5.64049E-004	...........
	92	24.025	1.13040E-001	1.13671E-001	5.63249E-004	...........
	93	24.2833	1.13228E-001	1.13724E-001	5.67515E-004	...........
	94	24.5417	1.13468E-001	1.14076E-001	5.61549E-004	...........
	95	24.8	1.13671E-001	1.14193E-001	5.55949E-004	...........
	96	25.0583	1.13842E-001	1.14337E-001	5.63682E-004	...........
	97	25.3167	1.14006E-001	1.14419E-001	5.61715E-004	...........
	98	25.575	1.14163E-001	1.14646E-001	5.61149E-004	...........
	99	25.8333	1.14311E-001	1.14763E-001	5.56982E-004	...........
	100	26.0917	1.14454E-001	1.14763E-001	5.68082E-004	...........
	101	26.35	1.14586E-001	1.14804E-001	5.70782E-004	...........
	102	26.6083	1.14689E-001	1.14823E-001	5.62849E-004	...........
	103	26.8667	1.14755E-001	1.14792E-001	5.55816E-004	...........
	104	27.125	1.14793E-001	1.14929E-001	5.70282E-004	...........
	105	27.3833	1.14819E-001	1.14897E-001	5.75015E-004	...........
	106	27.6417	1.14846E-001	1.14933E-001	5.65382E-004	...........
	107	27.9	1.14876E-001	1.14923E-001	5.63615E-004	...........
	108	28.1583	1.14901E-001	1.14967E-001	5.74182E-004	...........
	109	28.4167	1.14921E-001	1.14952E-001	5.74582E-004	...........
	110	28.675	1.14936E-001	1.14941E-001	5.62849E-004	...........
	111	28.9333	1.14944E-001	1.14881E-001	5.58715E-004	...........
	112	29.1917	1.14940E-001	1.14848E-001	5.67449E-004	...........
	113	29.45	1.14923E-001	1.14907E-001	5.74082E-004	...........
	114	29.7083	1.14903E-001	1.14915E-001	5.60649E-004	...........
	115	29.9667	1.14891E-001	1.14868E-001	5.61815E-004	...........
	116	30.225	1.14890E-001	1.14918E-001	5.72882E-004	...........
	117	30.4833	1.14893E-001	1.14897E-001	5.68515E-004	...........
	118	30.7417	1.14897E-001	1.14964E-001	5.57216E-004	...........
	119	31	1.14907E-001	1.15012E-001	5.63549E-004	...........
	120	31.2583	1.14929E-001	1.15081E-001	5.63315E-004	...........
	121	31.5167	1.14967E-001	1.15193E-001	5.60115E-004	...........
	122	31.775	1.15021E-001	1.15229E-001	5.64815E-004	...........
	123	32.0333	1.15088E-001	1.15271E-001	5.69849E-004	...........
	124	32.2917	1.15153E-001	1.15206E-001	5.72249E-004	...........
	125	32.55	1.15205E-001	1.15357E-001	5.61615E-004	...........
	126	32.8083	1.15243E-001	1.15398E-001	5.61249E-004	...........
	127	33.0667	1.15283E-001	1.15493E-001	5.70882E-004	...........
	128	33.325	1.15336E-001	1.15523E-001	5.72082E-004	...........
	129	33.5833	1.15398E-001	1.15492E-001	5.63715E-004	...........
	130	33.8417	1.15453E-001	1.15591E-001	5.59515E-004	...........
	131	34.1	1.15499E-001	1.15719E-001	5.71882E-004	...........
	132	34.3583	1.15547E-001	1.15802E-001	5.75682E-004	...........
	133	34.6167	1.15611E-001	1.15775E-001	5.66949E-004	...........
	134	34.875	1.15681E-001	1.15710E-001	5.62815E-004	...........
	135	35.1333	1.15734E-001	1.15917E-001	5.68615E-004	...........
	136	35.3917	1.15772E-001	1.15974E-001	5.72049E-004	...........
	137	35.65	1.15815E-001	1.16002E-001	5.62382E-004	...........
	138	35.9083	1.15875E-001	1.16006E-001	5.63849E-004	...........
	139	36.1667	1.15933E-001	1.15998E-001	5.76349E-004	...........
	140	36.425	1.15976E-001	1.16032E-001	5.66682E-004	...........
	141	36.6833	1.15999E-001	1.15968E-001	5.62415E-004	...........
	142	36.9417	1.16007E-001	1.16058E-001	5.66149E-004	...........
	143	37.2	1.16010E-001	1.16002E-001	5.74882E-004	...........
	144	37.4583	1.16012E-001	1.15993E-001	5.67682E-004	...........
	145	37.7167	1.16013E-001	1.15973E-001	5.67682E-004	...........
	146	37.975	1.16007E-001	1.15988E-001	5.76082E-004	...........
	147	38.2333	1.15999E-001	1.16089E-001	5.73182E-004	...........
	148	38.4917	1.16003E-001	1.16184E-001	5.64082E-004	...........
	149	38.75	1.16034E-001	1.16277E-001	5.68649E-004	...........
	150	39.0083	1.16092E-001	1.16295E-001	5.74749E-004	...........
	151	39.2667	1.16165E-001	1.16344E-001	5.70549E-004	...........
	152	39.525	1.16237E-001	1.16507E-001	5.72215E-004	...........
	153	39.7833	1.16308E-001	1.16609E-001	5.69082E-004	...........
	154	40.0417	1.16388E-001	1.16620E-001	5.82648E-004	...........
	155	40.3	1.16475E-001	1.16650E-001	5.74782E-004	...........
	156	40.5583	1.16552E-001	1.16667E-001	5.69815E-004	...........
	157	40.8167	1.16606E-001	1.16638E-001	5.67215E-004	...........
	158	41.075	1.16636E-001	1.16549E-001	5.76149E-004	...........
	159	41.3333	1.16642E-001	1.16759E-001	5.75482E-004	...........
	160	41.5917	1.16642E-001	1.16738E-001	5.61082E-004	...........
	161	41.85	1.16658E-001	1.16759E-001	5.64715E-004	...........
	162	42.1083	1.16690E-001	1.16738E-001	5.77082E-004	...........
	163	42.3667	1.16721E-001	1.16772E-001	5.74682E-004	...........
	164	42.625	1.16743E-001	1.16787E-001	5.65015E-004	...........
	165	42.8833	1.16746E-001	1.16231E-001	5.65982E-004	...........
	166	43.1417	1.16704E-001	1.16301E-001	5.69149E-004	...........
	167	43.4	1.16603E-001	1.16557E-001	5.62082E-004	...........
	168	43.6583	1.16497E-001	1.16682E-001	5.63749E-004	...........
	169	43.9167	1.16468E-001	1.16901E-001	5.69649E-004	...........
	170	44.175	1.16544E-001	1.17229E-001	5.71782E-004	...........
	171	44.4333	1.16701E-001	1.17267E-001	5.61049E-004	...........
	172	44.6917	1.16899E-001	1.17387E-001	5.63715E-004	...........
	173	44.95	1.17092E-001	1.17536E-001	5.75882E-004	...........
	174	45.2083	1.17255E-001	1.17647E-001	5.69582E-004	...........
	175	45.4667	1.17391E-001	1.17677E-001	5.64949E-004	...........
	176	45.725	1.17506E-001	1.17672E-001	5.64582E-004	...........
	177	45.9833	1.17596E-001	1.17910E-001	5.75549E-004	...........
	178	46.2417	1.17675E-001	1.18011E-001	5.68415E-004	...........
	179	46.5	1.17765E-001	1.18199E-001	5.63449E-004	...........
	180	46.7583	1.17880E-001	1.18275E-001	5.60616E-004	...........
	181	47.0167	1.18010E-001	1.18304E-001	5.68415E-004	...........
	182	47.275	1.18135E-001	1.18441E-001	5.69549E-004	...........
	183	47.5333	1.18242E-001	1.18574E-001	5.66882E-004	...........
	184	47.7917	1.18339E-001	1.18544E-001	5.67149E-004	...........
	185	48.05	1.18428E-001	1.18621E-001	5.77915E-004	...........
	186	48.3083	1.18506E-001	1.18796E-001	5.69082E-004	...........
	187	48.5667	1.18580E-001	1.18869E-001	5.64749E-004	...........
	188	48.825	1.18662E-001	1.18888E-001	5.61749E-004	...........
	189	49.0833	1.18749E-001	1.18953E-001	5.64215E-004	...........
	190	49.3417	1.18828E-001	1.19034E-001	5.62949E-004	...........
	191	49.6	1.18894E-001	1.18966E-001	5.65549E-004	...........
	192	49.8583	1.18946E-001	1.19077E-001	5.68849E-004	...........
	193	50.1167	1.18986E-001	1.19113E-001	5.69149E-004	...........
	194	50.375	1.19009E-001	1.18478E-001	5.65015E-004	...........
	195	50.6333	1.18990E-001	1.18972E-001	5.67782E-004	...........
	196	50.8917	1.18934E-001	1.19218E-001	5.69582E-004	...........
	197	51.15	1.18913E-001	1.19453E-001	5.70115E-004	...........
	198	51.4083	1.18994E-001	1.19442E-001	5.62082E-004	...........
	199	51.6667	1.19153E-001	1.19659E-001	5.62382E-004	...........
	200	51.925	1.19326E-001	1.19760E-001	5.69682E-004	...........
	201	52.1833	1.19483E-001	1.19870E-001	5.72215E-004	...........
	202	52.4417	1.19624E-001	1.20156E-001	5.62582E-004	...........
	203	52.7	1.19766E-001	1.20252E-001	5.63115E-004	...........
	204	52.9583	1.19918E-001	1.20309E-001	5.75049E-004	...........
	205	53.2167	1.20072E-001	1.20501E-001	5.70882E-004	...........
	206	53.475	1.20215E-001	1.20701E-001	5.63015E-004	...........
	207	53.7333	1.20353E-001	1.20691E-001	5.63715E-004	...........
	208	53.9917	1.20487E-001	1.20799E-001	5.69282E-004	...........
	209	54.25	1.20606E-001	1.20828E-001	5.70115E-004	...........
	210	54.5083	1.20700E-001	1.20875E-001	5.65049E-004	...........
	211	54.7667	1.20770E-001	1.20860E-001	5.66015E-004	...........
	212	55.025	1.20818E-001	1.20842E-001	5.72949E-004	...........
	213	55.2833	1.20846E-001	1.20897E-001	5.66382E-004	...........
	214	55.5417	1.20859E-001	1.20852E-001	5.69882E-004	...........
	215	55.8	1.20866E-001	1.20894E-001	5.67915E-004	...........
	216	56.0583	1.20872E-001	1.20972E-001	5.73182E-004	...........
	217	56.3167	1.20884E-001	1.20879E-001	5.59382E-004	...........
	218	56.575	1.20898E-001	1.20879E-001	5.59382E-004	...........
	219	56.8333	1.20906E-001	1.20892E-001	5.71182E-004	...........
	220	57.0917	1.20904E-001	1.20953E-001	5.70749E-004	...........
	221	57.35	1.20903E-001	1.20979E-001	5.61382E-004	...........
	222	57.6083	1.20915E-001	1.20971E-001	5.59982E-004	...........
	223	57.8667	1.20938E-001	1.21066E-001	5.71515E-004	...........
	224	58.125	1.20967E-001	1.21070E-001	5.73382E-004	...........
	225	58.3833	1.21001E-001	1.21121E-001	5.65982E-004	...........
	226	58.6417	1.21037E-001	1.21094E-001	5.65349E-004	...........
	227	58.9	1.21070E-001	1.21182E-001	5.65015E-004	...........
	228	59.1583	1.21100E-001	1.21193E-001	5.63382E-004	...........
	229	59.4167	1.21128E-001	1.21206E-001	5.57182E-004	...........
	230	59.675	1.21155E-001	1.21081E-001	5.69282E-004	...........
	231	59.9333	1.21167E-001	1.21124E-001	5.71982E-004	...........
	232	60.1917	1.21159E-001	1.21125E-001	5.66249E-004	...........
	233	60.45	1.21140E-001	1.21026E-001	5.65315E-004	...........
	234	60.7083	1.21115E-001	1.20963E-001	5.68249E-004	...........
	235	60.9667	1.21081E-001	1.20893E-001	5.69815E-004	...........
	236	61.225	1.21034E-001	1.20994E-001	5.66582E-004	...........
	237	61.4833	1.20991E-001	1.21047E-001	5.66782E-004	...........
	238	61.7417	1.20974E-001	1.21084E-001	5.73182E-004	...........
	239	62	1.20994E-001	1.21285E-001	5.75949E-004	...........
	240	62.2583	1.21047E-001	1.21205E-001	5.69882E-004	...........
	241	62.5167	1.21114E-001	1.21182E-001	5.74515E-004	...........
	242	62.775	1.21156E-001	1.20482E-001	5.76182E-004	...........
	243	63.0333	1.21100E-001	1.19820E-001	5.76482E-004	...........
	244	63.2917	1.20884E-001	1.19933E-001	5.66049E-004	...........
	245	63.55	1.20548E-001	1.19926E-001	5.67949E-004	...........
	246	63.8083	1.20226E-001	1.19881E-001	5.74082E-004	...........
	247	64.0667	1.20035E-001	1.20931E-001	5.72015E-004	...........
	248	64.325	1.20022E-001	1.19979E-001	5.67482E-004	...........
	249	64.5833	1.20141E-001	1.20782E-001	5.66049E-004	...........
	250	64.8417	1.20293E-001	1.20613E-001	5.74949E-004	...........
	251	65.1	1.20420E-001	1.20387E-001	5.73249E-004	...........
	252	65.3583	1.20501E-001	1.20375E-001	5.65382E-004	...........
	253	65.6167	1.20523E-001	1.20887E-001	5.62915E-004	...........
	254	65.875	1.20528E-001	1.20607E-001	5.71982E-004	...........
	255	66.1333	1.20559E-001	1.20397E-001	5.71082E-004	...........
	256	66.3917	1.20587E-001	1.20431E-001	5.66715E-004	...........
	257	66.65	1.20573E-001	1.20754E-001	5.70149E-004	...........
	258	66.9083	1.20545E-001	1.20496E-001	5.72349E-004	...........
	259	67.1667	1.20541E-001	1.20432E-001	5.66849E-004	...........
	260	67.425	1.20542E-001	1.20464E-001	5.66715E-004	...........
	261	67.6833	1.20519E-001	1.20278E-001	5.77749E-004	...........
	262	67.9417	1.20472E-001	1.20285E-001	5.81415E-004	...........
	263	68.2	1.20411E-001	1.20326E-001	5.70249E-004	...........
	264	68.4583	1.20357E-001	1.20372E-001	5.68082E-004	...........
	265	68.7167	1.20328E-001	1.20298E-001	5.74982E-004	...........
	266	68.975	1.20319E-001	1.20175E-001	5.75915E-004	...........
	267	69.2333	1.20306E-001	1.20180E-001	5.65049E-004	...........
	268	69.4917	1.20274E-001	1.20182E-001	5.74549E-004	...........
	269	69.75	1.20233E-001	1.20184E-001	5.76015E-004	...........
	270	70.0083	1.20201E-001	1.20137E-001	5.76182E-004	...........
	271	70.2667	1.20183E-001	1.20263E-001	5.77149E-004	...........
	272	70.525	1.20182E-001	1.20319E-001	5.72015E-004	...........
	273	70.7833	1.20201E-001	1.20270E-001	5.73882E-004	...........
	274	71.0417	1.20235E-001	1.20292E-001	5.69782E-004	...........
	275	71.3	1.20264E-001	1.20249E-001	5.64649E-004	...........
	276	71.5583	1.20275E-001	1.20157E-001	5.65282E-004	...........
	277	71.8167	1.20264E-001	1.20160E-001	5.79815E-004	...........
	278	72.075	1.20235E-001	1.20188E-001	5.74415E-004	...........
	279	72.3333	1.20203E-001	1.20125E-001	5.68782E-004	...........
	280	72.5917	1.20177E-001	1.20126E-001	5.76315E-004	...........
	281	72.85	1.20159E-001	1.20152E-001	5.81448E-004	...........
	282	73.1083	1.20147E-001	1.20125E-001	5.81248E-004	...........
	283	73.3667	1.20139E-001	1.20146E-001	5.80848E-004	...........
	284	73.625	1.20137E-001	1.20141E-001	5.77782E-004	...........
	285	73.8833	1.20138E-001	1.20156E-001	5.79282E-004	...........
	286	74.1417	1.20142E-001	1.20205E-001	5.71415E-004	...........
	287	74.4	1.20152E-001	1.20219E-001	5.71982E-004	...........
	288	74.6583	1.20168E-001	1.20197E-001	5.80548E-004	...........
	289	74.9167	1.20187E-001	1.20250E-001	5.81548E-004	...........
	290	75.175	1.20197E-001	1.19885E-001	5.70849E-004	...........
	291	75.4333	1.20174E-001	1.19738E-001	5.71782E-004	...........
	292	75.6917	1.20093E-001	1.19751E-001	5.84048E-004	...........
	293	75.95	1.19979E-001	1.20208E-001	5.74949E-004	...........
	294	76.2083	1.19898E-001	1.19571E-001	5.69782E-004	...........
	295	76.4667	1.19865E-001	1.19665E-001	5.79048E-004	...........
	296	76.725	1.19830E-001	1.19650E-001	5.79815E-004	...........
	297	76.9833	1.19766E-001	1.19585E-001	5.79115E-004	...........
	298	77.2417	1.19698E-001	1.19647E-001	5.76282E-004	...........
	299	77.5	1.19651E-001	1.19627E-001	5.74749E-004	...........
	300	77.7583	1.19634E-001	1.19922E-001	5.88082E-004	...........
	301	78.0167	1.19691E-001	1.21603E-001	5.83215E-004	...........
	302	78.275	1.19912E-001	1.20951E-001	5.71615E-004	...........
	303	78.5333	1.20269E-001	1.19300E-001	5.76215E-004	...........
	304	78.7917	1.20484E-001	1.18671E-001	5.76615E-004	...........
	305	79.05	1.20286E-001	1.18590E-001	5.76682E-004	...........
	306	79.3083	1.19737E-001	1.17790E-001	5.79448E-004	...........
	307	79.5667	1.19107E-001	1.18586E-001	5.76449E-004	...........
	308	79.825	1.18627E-001	1.18638E-001	5.77615E-004	...........
	309	80.0833	1.18406E-001	1.18735E-001	5.70182E-004	...........
	310	80.3417	1.18417E-001	1.18699E-001	5.69949E-004	...........
	311	80.6	1.18521E-001	1.18256E-001	5.79282E-004	...........
	312	80.8583	1.18572E-001	1.17860E-001	5.80815E-004	...........
	313	81.1167	1.18487E-001	1.17654E-001	5.76682E-004	...........
	314	81.375	1.18267E-001	1.17334E-001	5.70782E-004	...........
	315	81.6333	1.17984E-001	1.17467E-001	5.81648E-004	...........
	316	81.8917	1.17746E-001	1.18660E-001	5.79615E-004	...........
	317	82.15	1.17684E-001	1.18415E-001	5.67882E-004	...........
	318	82.4083	1.17854E-001	1.19001E-001	5.65515E-004	...........
	319	82.6667	1.18171E-001	1.19012E-001	5.75115E-004	...........
	320	82.925	1.18484E-001	1.17906E-001	5.73049E-004	...........
	321	83.1833	1.18647E-001	1.18385E-001	5.72582E-004	...........
	322	83.4417	1.18602E-001	1.17935E-001	5.71515E-004	...........
	323	83.7	1.18438E-001	1.18461E-001	5.73215E-004	...........
	324	83.9583	1.18295E-001	1.18392E-001	5.75815E-004	...........
	325	84.2167	1.18262E-001	1.18955E-001	5.67282E-004	...........
	326	84.475	1.18344E-001	1.18450E-001	5.71382E-004	...........
	327	84.7333	1.18488E-001	1.19219E-001	5.72949E-004	...........
	328	84.9917	1.18683E-001	1.21194E-001	5.69182E-004	...........
	329	85.25	1.19032E-001	1.20334E-001	5.64249E-004	...........
	330	85.5083	1.19555E-001	1.20378E-001	5.72782E-004	...........
	331	85.7667	1.20052E-001	1.20360E-001	5.78482E-004	...........
	332	86.025	1.20314E-001	1.19212E-001	5.66115E-004	...........
	333	86.2833	1.20283E-001	1.19103E-001	5.74682E-004	...........
	334	86.5417	1.20011E-001	1.19175E-001	5.75915E-004	...........
	335	86.8	1.19686E-001	1.21178E-001	5.76615E-004	...........
	336	87.0583	1.19582E-001	1.20434E-001	5.69049E-004	...........
	337	87.3167	1.19797E-001	1.20366E-001	5.69849E-004	...........
	338	87.575	1.20135E-001	1.20367E-001	5.75615E-004	...........
	339	87.8333	1.20357E-001	1.20304E-001	5.75449E-004	...........
	340	88.0917	1.20419E-001	1.20340E-001	5.71815E-004	...........
	341	88.35	1.20427E-001	1.21890E-001	5.71615E-004	...........
	342	88.6083	1.20528E-001	1.20980E-001	5.79482E-004	...........
	343	88.8667	1.20740E-001	1.19984E-001	5.83615E-004	...........
	344	89.125	1.20840E-001	1.18607E-001	5.71515E-004	...........
	345	89.3833	1.20579E-001	1.18676E-001	5.78515E-004	...........
	346	89.6417	1.20004E-001	1.19236E-001	5.76315E-004	...........
	347	89.9	1.19429E-001	1.19336E-001	5.75582E-004	...........
	348	90.1583	1.19122E-001	1.19309E-001	5.74049E-004	...........
	349	90.4167	1.19134E-001	1.21733E-001	5.78749E-004	...........
	350	90.675	1.19468E-001	1.22098E-001	5.78815E-004	...........
	351	90.9333	1.20127E-001	1.22372E-001	5.71249E-004	...........
	352	91.1917	1.20954E-001	1.22493E-001	5.76249E-004	...........
	353	91.45	1.21682E-001	1.22497E-001	5.79315E-004	...........
	354	91.7083	1.22167E-001	1.22739E-001	5.81682E-004	...........
	355	91.9667	1.22433E-001	1.22635E-001	5.72982E-004	...........
	356	92.225	1.22576E-001	1.23144E-001	5.72449E-004	...........
	357	92.4833	1.22690E-001	1.23186E-001	5.84882E-004	...........
	358	92.7417	1.22830E-001	1.23394E-001	5.77115E-004	...........
	359	93	1.23004E-001	1.23572E-001	5.74849E-004	...........
	360	93.2583	1.23190E-001	1.23731E-001	5.73215E-004	...........
	361	93.5167	1.23375E-001	1.23985E-001	5.76749E-004	...........
	362	93.775	1.23557E-001	1.24023E-001	5.72549E-004	...........
	363	94.0333	1.23732E-001	1.24109E-001	5.67882E-004	...........
	364	94.2917	1.23885E-001	1.24184E-001	5.67882E-004	...........
	365	94.55	1.23996E-001	1.23696E-001	5.76815E-004	...........
	366	94.8083	1.24000E-001	1.21978E-001	5.76415E-004	...........
	367	95.067	1.23767E-001	1.21476E-001	5.72849E-004	...........
	368	95.325	1.23229E-001	1.21339E-001	5.65749E-004	...........
	369	95.583	1.22545E-001	1.22186E-001	5.76249E-004	...........
	370	95.842	1.22006E-001	1.21591E-001	5.74815E-004	...........
	371	96.1	1.21753E-001	1.21637E-001	5.70949E-004	...........
	372	96.358	1.21700E-001	1.22125E-001	5.77382E-004	...........
	373	96.617	1.21743E-001	1.22523E-001	5.83148E-004	...........
	374	96.875	1.21847E-001	1.21086E-001	5.74982E-004	...........
	375	97.133	1.21909E-001	1.20877E-001	5.70115E-004	...........
	376	97.392	1.21796E-001	1.21594E-001	5.77815E-004	...........
	377	97.65	1.21598E-001	1.23194E-001	5.77448E-004	...........
	378	97.908	1.21625E-001	1.24229E-001	5.69482E-004	...........
	379	98.167	1.22093E-001	1.24953E-001	5.68049E-004	...........
	380	98.425	1.22909E-001	1.24908E-001	5.73582E-004	...........
	381	98.683	1.23733E-001	1.22735E-001	5.78182E-004	...........
	382	98.942	1.24200E-001	1.24320E-001	5.70582E-004	...........
	383	99.2	1.24185E-001	1.21739E-001	5.71149E-004	...........
	384	99.458	1.23815E-001	1.22080E-001	5.78249E-004	...........
	385	99.717	1.23268E-001	1.22658E-001	5.76382E-004	...........
	386	99.975	1.22769E-001	1.23053E-001	5.70849E-004	...........
EOC	QUANT	0.1227695	Open Circuit (V)
PSTATMODEL	IQUANT	4	Pstat Model
PSTATSECTION	LABEL	REF600-24084	Pstat Section
PSTATSERIALNO	LABEL	24084	Pstat Serial Number
CTRLMODE	IQUANT	1	Control Mode
IESTAB	IQUANT	0	I/E Stability
CASPEED	IQUANT	1	Control Amp Speed
CONVENTION	IQUANT	1	Current Convention
ICHRANGE	IQUANT	2	Ich Range
ICHRANGEMODE	TOGGLE	F	Ich Auto Range
ICHOFFSETENABLE	TOGGLE	T	Ich Offset Enable
ICHOFFSET	QUANT	0	Ich Offset (V)
ICHFILTER	IQUANT	3	Ich Filter
VCHRANGE	IQUANT	2	Vch Range
VCHRANGEMODE	TOGGLE	F	Vch Auto Range
VCHOFFSETENABLE	TOGGLE	T	Vch Offset Enable
VCHOFFSET	QUANT	0	Vch Offset (V)
VCHFILTER	IQUANT	3	Vch Filter
ACHRANGE	IQUANT	2	Ach Range
ACHOFFSETENABLE	TOGGLE	F	Ach Offset Enable
ACHOFFSET	QUANT	0	Ach Offset (V)
ACHFILTER	IQUANT	3	Ach Filter
IERANGELOWERLIMIT	IQUANT	1	I/E Range Lower Limit
IERANGEMODE	TOGGLE	F	I/E AutoRange
IERANGE	IQUANT	1	I/E Range
POSFEEDENABLE	TOGGLE	F	Positive Feedback IR Comp
POSFEEDRESISTANCE	QUANT	0	Positive Feedback Resistance (ohm)
ACHSELECT	IQUANT	0	Ach Select
CABLEID	IQUANT	14	Cable ID
DCCALDATE	LABEL	7/17/2015	DC Calibration Date
ACCALDATE	LABEL	7/17/2015	AC Calibration Date
THERMOSELECT	IQUANT	1	Thermo Select
FRAMEWORKVERSION	QUANT	6.25	Framework Version
INSTRUMENTVERSION	LABEL	3.28	Instrument Version
ZCURVE	TABLE
	Pt	Time	Freq	Zreal	Zimag	Zsig	Zmod	Zphz	Idc	Vdc	IERange
	#	s	Hz	ohm	ohm	V	ohm	°	A	V	#
	0	2	1000078	19.89292	-2.58132	1	20.0597	-7.39343	-2.938707E-005	0.0023129	9
	1	3	630984.4	20.91255	-3.467043	1	21.198	-9.413313	-4.35127E-005	0.0018219	9
	2	4	398109.4	21.86998	-4.481018	1	22.32433	-11.57927	-3.988046E-005	0.0016011	9
	3	6	251203.1	22.8744	-5.816419	1	23.60231	-14.26661	-4.065632E-005	0.0015173	9
	4	7	158578.1	24.13193	-7.692874	1	25.32845	-17.68145	-4.172461E-005	0.0014515	10
	5	8	100078.1	25.7174	-10.15566	1	27.65	-21.54878	-3.936246E-005	0.0014449	9
	6	10	63140.62	27.86373	-13.59649	1	31.00406	-26.01069	-3.955382E-005	0.0014455	9
	7	11	39890.62	30.73782	-18.20359	1	35.72372	-30.63492	-3.926841E-005	0.0014435	9
	8	13	25171.88	34.62582	-24.44545	1	42.38546	-35.22168	-3.929286E-005	0.0014351	9
	9	14	15890.62	39.91655	-32.82435	1	51.67949	-39.43129	-3.940145E-005	0.0014534	8
	10	15	10078.13	47.21724	-43.93554	1	64.49651	-42.93811	-3.898309E-005	0.0014303	8
	11	17	6328.125	57.66216	-58.91195	1	82.43507	-45.61424	-3.870959E-005	0.0014184	8
	12	18	3984.375	72.03763	-77.99072	1	106.1695	-47.27229	-3.881185E-005	0.0014507	8
	13	19	2527.573	91.33372	-101.9647	1	136.8892	-48.14796	-3.826354E-005	0.0014245	8
	14	21	1577.524	117.8577	-132.9903	1	177.6988	-48.45221	-3.842636E-005	0.0014465	8
	15	22	998.264	152.4068	-171.378	1	229.3431	-48.35323	-3.812004E-005	0.0014275	8
	16	23	627.7902	198.1038	-219.0589	1	295.3505	-47.87569	-3.800073E-005	0.0014393	8
	17	25	397.9953	257.7402	-276.9016	1	378.2915	-47.05259	-3.752394E-005	0.0014475	8
	18	26	252.4038	335.1584	-346.1599	1	481.8275	-45.9251	-3.745257E-005	0.0014413	8
	19	27	158.3615	438.3523	-429.0769	1	613.4001	-44.38736	-3.725371E-005	0.0014409	8
	20	29	100.4464	568.4238	-520.245	1	770.5585	-42.46604	-3.705687E-005	0.0014427	8
	21	30	63.3446	735.801	-618.2308	1	961.048	-40.03747	-3.678035E-005	0.001442	8
	22	31	39.72458	947.1308	-714.3686	1	1186.33	-37.02524	-3.659319E-005	0.0014471	8
	23	33	24.93351	1201.244	-792.2892	1	1438.996	-33.40715	-3.639256E-005	0.0014483	8
	24	34	15.83615	1482.255	-833.8652	1	1700.709	-29.36059	-3.621791E-005	0.0014493	8
	25	35	9.93114	1782.76	-823.4017	1	1963.727	-24.79076	-3.594369E-005	0.0014523	8
	26	37	6.317385	2057.397	-772.6483	1	2197.696	-20.58349	-3.567018E-005	0.0014452	8
	27	39	3.945707	2308.241	-686.1431	1	2408.063	-16.555	-3.536741E-005	0.0014486	8
	28	41	2.504006	2505.719	-592.0806	1	2574.72	-13.29467	-3.500852E-005	0.0014411	8
	29	44	1.584686	2682.89	-481.5358	1	2725.761	-10.17533	-3.456482E-005	0.0015984	7
	30	47	0.999041	2786.249	-364.096	1	2809.938	-7.445	-3.401652E-005	0.0015927	7
	31	51	0.633446	2944.634	-302.2415	1	2960.104	-5.860399	-3.361598E-005	0.000168	7
	32	59	0.400641	3066.199	-254.7722	1	3076.766	-4.749827	-3.230888E-005	0.0001576	7
	33	70	0.2520161	3203.563	-217.6061	1	3210.945	-3.88592	-2.951133E-005	-3.654088E-006	8
	34	103	0.1588983	3324.268	-191.5278	1	3329.781	-3.297452	-2.878741E-005	0.00014	7
	35	128	0.1001603	3467.227	-174.9456	1	3471.638	-2.888519	-2.848617E-005	0.0001405	7
