EXPLAIN
TAG	EISPOT
TITLE	LABEL	Potentiostatic EIS	Test &Identifier
DATE	LABEL	11/20/2015	Date
TIME	LABEL	11:51:10	Time
NOTES	NOTES	2	&Notes...
	3mm micrometer spacing
	2mm plate spacing
PSTAT	PSTAT	REF600-24084	Potentiostat
VDC	POTEN	0.00000E+000	F	DC &Voltage (V)
FREQINIT	QUANT	1.00000E+006	Initial Fre&q. (Hz)
FREQFINAL	QUANT	1.00000E-001	Final Fre&q. (Hz)
PTSPERDEC	QUANT	5.00000E+000	Points/&decade
VAC	QUANT	1.00000E+001	AC &Voltage (mV rms)
AREA	QUANT	1.00000E+000	&Area (cm^2)
CONDIT	TWOPARAM	F	1.50000E+001	0.00000E+000	Conditionin&g	Time(s)	E(V)
DELAY	TWOPARAM	T	1.00000E+002	0.00000E+000	Init. De&lay	Time(s)	Stab.(mV/s)
SPEED	SELECTOR	1	&Optimize for:
ZGUESS	QUANT	1.00000E+001	E&stimated Z (ohms)
OCVCURVE	TABLE	387
	Pt	T	Vf	Vm	Ach	Over
	#	s	V vs. Ref.	V	V	bits
	0	0.258333	-9.44377E-002	-9.44377E-002	4.84517E-004	...........
	1	0.516667	-9.44384E-002	-9.44731E-002	4.85150E-004	...........
	2	0.775	-9.44420E-002	-9.44785E-002	4.80817E-004	...........
	3	1.03333	-9.44519E-002	-9.45574E-002	4.84517E-004	...........
	4	1.29167	-9.44749E-002	-9.47793E-002	4.76183E-004	...........
	5	1.55	-9.45255E-002	-9.48677E-002	4.83383E-004	...........
	6	1.80833	-9.46107E-002	-9.48731E-002	4.86450E-004	...........
	7	2.06667	-9.47121E-002	-9.48651E-002	4.81150E-004	...........
	8	2.325	-9.47969E-002	-9.48754E-002	4.84583E-004	...........
	9	2.58333	-9.48476E-002	-9.48694E-002	4.84783E-004	...........
	10	2.84167	-9.48689E-002	-9.48587E-002	4.80450E-004	...........
	11	3.1	-9.48724E-002	-9.48290E-002	4.84950E-004	...........
	12	3.35833	-9.48656E-002	-9.48064E-002	4.83150E-004	...........
	13	3.61667	-9.48511E-002	-9.47632E-002	4.86483E-004	...........
	14	3.875	-9.48296E-002	-9.47508E-002	4.88517E-004	...........
	15	4.13333	-9.48029E-002	-9.46849E-002	4.87850E-004	...........
	16	4.39167	-9.47706E-002	-9.45946E-002	4.80817E-004	...........
	17	4.65	-9.47283E-002	-9.45088E-002	4.85883E-004	...........
	18	4.90833	-9.46718E-002	-9.44747E-002	4.82083E-004	...........
	19	5.16667	-9.46069E-002	-9.45036E-002	4.79750E-004	...........
	20	5.425	-9.45493E-002	-9.44824E-002	4.81450E-004	...........
	21	5.68333	-9.45118E-002	-9.45119E-002	4.86317E-004	...........
	22	5.94167	-9.44963E-002	-9.45287E-002	4.80883E-004	...........
	23	6.2	-9.44984E-002	-9.45971E-002	4.82117E-004	...........
	24	6.45833	-9.45136E-002	-9.45429E-002	4.84683E-004	...........
	25	6.71667	-9.45344E-002	-9.45661E-002	4.83217E-004	...........
	26	6.975	-9.45521E-002	-9.46139E-002	4.85050E-004	...........
	27	7.23333	-9.45653E-002	-9.45936E-002	4.85183E-004	...........
	28	7.49167	-9.45806E-002	-9.47573E-002	4.87817E-004	...........
	29	7.75	-9.46132E-002	-9.50717E-002	4.84483E-004	...........
	30	8.00833	-9.46851E-002	-9.50164E-002	4.83983E-004	...........
	31	8.26667	-9.47935E-002	-9.48885E-002	4.82650E-004	...........
	32	8.525	-9.48890E-002	-9.47188E-002	4.76283E-004	...........
	33	8.78333	-9.49160E-002	-9.46053E-002	4.82017E-004	...........
	34	9.04167	-9.48597E-002	-9.43477E-002	4.82417E-004	...........
	35	9.3	-9.47395E-002	-9.42581E-002	4.80383E-004	...........
	36	9.5583	-9.45885E-002	-9.43154E-002	4.83217E-004	...........
	37	9.8167	-9.44486E-002	-9.43106E-002	4.85817E-004	...........
	38	10.075	-9.43550E-002	-9.43211E-002	4.77983E-004	...........
	39	10.3333	-9.43140E-002	-9.43476E-002	4.82350E-004	...........
	40	10.5917	-9.43092E-002	-9.43648E-002	4.79550E-004	...........
	41	10.85	-9.43202E-002	-9.42830E-002	4.82783E-004	...........
	42	11.1083	-9.43289E-002	-9.42690E-002	4.77350E-004	...........
	43	11.3667	-9.43236E-002	-9.42695E-002	4.79583E-004	...........
	44	11.625	-9.43066E-002	-9.42978E-002	4.83683E-004	...........
	45	11.8833	-9.42912E-002	-9.43188E-002	4.79383E-004	...........
	46	12.1417	-9.42915E-002	-9.45356E-002	4.84283E-004	...........
	47	12.4	-9.43196E-002	-9.45084E-002	4.79983E-004	...........
	48	12.6583	-9.43741E-002	-9.44317E-002	4.81017E-004	...........
	49	12.9167	-9.44258E-002	-9.42574E-002	4.82717E-004	...........
	50	13.175	-9.44340E-002	-9.41185E-002	4.83583E-004	...........
	51	13.4333	-9.43811E-002	-9.40638E-002	4.83483E-004	...........
	52	13.6917	-9.42848E-002	-9.40154E-002	4.83017E-004	...........
	53	13.95	-9.41789E-002	-9.39108E-002	4.82250E-004	...........
	54	14.2083	-9.40844E-002	-9.38443E-002	4.82183E-004	...........
	55	14.4667	-9.40044E-002	-9.39129E-002	4.87050E-004	...........
	56	14.725	-9.39438E-002	-9.39624E-002	4.83083E-004	...........
	57	14.9833	-9.39131E-002	-9.39153E-002	4.82550E-004	...........
	58	15.2417	-9.39091E-002	-9.38711E-002	4.81183E-004	...........
	59	15.5	-9.39125E-002	-9.39046E-002	4.85283E-004	...........
	60	15.7583	-9.39091E-002	-9.38718E-002	4.83817E-004	...........
	61	16.0167	-9.39049E-002	-9.41316E-002	4.84150E-004	...........
	62	16.275	-9.39188E-002	-9.40368E-002	4.89817E-004	...........
	63	16.5333	-9.39564E-002	-9.39457E-002	4.81483E-004	...........
	64	16.7917	-9.39922E-002	-9.39158E-002	4.82983E-004	...........
	65	17.05	-9.39972E-002	-9.38733E-002	4.87083E-004	...........
	66	17.3083	-9.39725E-002	-9.39731E-002	4.84883E-004	...........
	67	17.5667	-9.39464E-002	-9.40947E-002	4.86283E-004	...........
	68	17.825	-9.39500E-002	-9.41806E-002	4.85017E-004	...........
	69	18.0833	-9.39945E-002	-9.41944E-002	4.86450E-004	...........
	70	18.3417	-9.40638E-002	-9.42240E-002	4.93050E-004	...........
	71	18.6	-9.41300E-002	-9.41585E-002	4.88517E-004	...........
	72	18.8583	-9.41722E-002	-9.41376E-002	4.90416E-004	...........
	73	19.1167	-9.41827E-002	-9.40711E-002	4.88683E-004	...........
	74	19.375	-9.41656E-002	-9.40523E-002	4.86117E-004	...........
	75	19.6333	-9.41320E-002	-9.40305E-002	4.84850E-004	...........
	76	19.8917	-9.40934E-002	-9.39584E-002	4.82683E-004	...........
	77	20.15	-9.40550E-002	-9.39389E-002	4.83883E-004	...........
	78	20.4083	-9.40168E-002	-9.39257E-002	4.81583E-004	...........
	79	20.6667	-9.39826E-002	-9.40081E-002	4.83783E-004	...........
	80	20.925	-9.39637E-002	-9.40553E-002	4.80250E-004	...........
	81	21.1833	-9.39687E-002	-9.40298E-002	4.86650E-004	...........
	82	21.4417	-9.39920E-002	-9.40650E-002	4.83983E-004	...........
	83	21.7	-9.40190E-002	-9.40736E-002	4.80850E-004	...........
	84	21.9583	-9.40388E-002	-9.39616E-002	4.83283E-004	...........
	85	22.2167	-9.40498E-002	-9.42958E-002	4.84650E-004	...........
	86	22.475	-9.40696E-002	-9.43649E-002	4.84383E-004	...........
	87	22.7333	-9.41239E-002	-9.43502E-002	4.81850E-004	...........
	88	22.9917	-9.42073E-002	-9.43462E-002	4.81883E-004	...........
	89	23.25	-9.42839E-002	-9.43267E-002	4.81950E-004	...........
	90	23.5083	-9.43308E-002	-9.44702E-002	4.82483E-004	...........
	91	23.7667	-9.43578E-002	-9.44281E-002	4.82417E-004	...........
	92	24.025	-9.43839E-002	-9.44975E-002	4.83883E-004	...........
	93	24.2833	-9.44142E-002	-9.44417E-002	4.86050E-004	...........
	94	24.5417	-9.44372E-002	-9.42931E-002	4.82983E-004	...........
	95	24.8	-9.44360E-002	-9.43028E-002	4.81550E-004	...........
	96	25.0583	-9.44047E-002	-9.42879E-002	4.86050E-004	...........
	97	25.3167	-9.43600E-002	-9.43346E-002	4.78483E-004	...........
	98	25.575	-9.43259E-002	-9.43126E-002	4.86183E-004	...........
	99	25.8333	-9.43117E-002	-9.43221E-002	4.83950E-004	...........
	100	26.0917	-9.43108E-002	-9.42970E-002	4.81617E-004	...........
	101	26.35	-9.43098E-002	-9.41587E-002	4.81417E-004	...........
	102	26.6083	-9.42940E-002	-9.41462E-002	4.89983E-004	...........
	103	26.8667	-9.42561E-002	-9.40810E-002	4.81183E-004	...........
	104	27.125	-9.42032E-002	-9.40543E-002	4.83383E-004	...........
	105	27.3833	-9.41487E-002	-9.40405E-002	4.82350E-004	...........
	106	27.6417	-9.41059E-002	-9.42153E-002	4.78683E-004	...........
	107	27.9	-9.40911E-002	-9.42511E-002	4.83283E-004	...........
	108	28.1583	-9.41131E-002	-9.41998E-002	4.87750E-004	...........
	109	28.4167	-9.41557E-002	-9.41836E-002	4.83283E-004	...........
	110	28.675	-9.41881E-002	-9.41197E-002	4.79417E-004	...........
	111	28.9333	-9.41930E-002	-9.41137E-002	4.81450E-004	...........
	112	29.1917	-9.41747E-002	-9.41064E-002	4.80117E-004	...........
	113	29.45	-9.41469E-002	-9.40510E-002	4.76950E-004	...........
	114	29.7083	-9.41187E-002	-9.40288E-002	4.77883E-004	...........
	115	29.9667	-9.40900E-002	-9.39654E-002	4.82983E-004	...........
	116	30.225	-9.40569E-002	-9.39127E-002	4.82317E-004	...........
	117	30.4833	-9.40171E-002	-9.38799E-002	4.81783E-004	...........
	118	30.7417	-9.39717E-002	-9.38143E-002	4.83283E-004	...........
	119	31	-9.39259E-002	-9.38948E-002	4.81583E-004	...........
	120	31.2583	-9.38814E-002	-9.34578E-002	4.81017E-004	...........
	121	31.5167	-9.38085E-002	-9.27898E-002	4.82750E-004	...........
	122	31.775	-9.36643E-002	-9.36816E-002	4.85350E-004	...........
	123	32.0333	-9.34943E-002	-9.37573E-002	4.86783E-004	...........
	124	32.2917	-9.34224E-002	-9.37560E-002	4.86683E-004	...........
	125	32.55	-9.34889E-002	-9.38134E-002	4.80950E-004	...........
	126	32.8083	-9.36156E-002	-9.38285E-002	4.80217E-004	...........
	127	33.0667	-9.37226E-002	-9.37974E-002	4.86117E-004	...........
	128	33.325	-9.37909E-002	-9.41279E-002	4.87650E-004	...........
	129	33.5833	-9.38460E-002	-9.40595E-002	4.82017E-004	...........
	130	33.8417	-9.39104E-002	-9.38761E-002	4.86417E-004	...........
	131	34.1	-9.39640E-002	-9.38928E-002	4.90783E-004	...........
	132	34.3583	-9.39764E-002	-9.39388E-002	4.86350E-004	...........
	133	34.6167	-9.39558E-002	-9.39079E-002	4.85417E-004	...........
	134	34.875	-9.39313E-002	-9.38762E-002	4.90683E-004	...........
	135	35.1333	-9.39153E-002	-9.39156E-002	4.85250E-004	...........
	136	35.3917	-9.39066E-002	-9.39443E-002	4.87683E-004	...........
	137	35.65	-9.39108E-002	-9.41670E-002	4.88817E-004	...........
	138	35.9083	-9.39439E-002	-9.42682E-002	4.86217E-004	...........
	139	36.1667	-9.40156E-002	-9.42713E-002	4.82883E-004	...........
	140	36.425	-9.41096E-002	-9.42546E-002	4.85150E-004	...........
	141	36.6833	-9.41905E-002	-9.41989E-002	4.84217E-004	...........
	142	36.9417	-9.42339E-002	-9.42163E-002	4.82750E-004	...........
	143	37.2	-9.42422E-002	-9.42413E-002	4.85150E-004	...........
	144	37.4583	-9.42356E-002	-9.42622E-002	4.84850E-004	...........
	145	37.7167	-9.42341E-002	-9.43190E-002	4.83250E-004	...........
	146	37.975	-9.42486E-002	-9.44495E-002	4.86017E-004	...........
	147	38.2333	-9.42814E-002	-9.43134E-002	4.88583E-004	...........
	148	38.4917	-9.43202E-002	-9.43045E-002	4.83383E-004	...........
	149	38.75	-9.43427E-002	-9.43242E-002	4.86883E-004	...........
	150	39.0083	-9.43420E-002	-9.43107E-002	4.84583E-004	...........
	151	39.2667	-9.43313E-002	-9.43521E-002	4.84650E-004	...........
	152	39.525	-9.43245E-002	-9.43147E-002	4.84350E-004	...........
	153	39.7833	-9.43225E-002	-9.42412E-002	4.88717E-004	...........
	154	40.0417	-9.43146E-002	-9.41811E-002	4.86217E-004	...........
	155	40.3	-9.42901E-002	-9.41693E-002	4.90517E-004	...........
	156	40.5583	-9.42487E-002	-9.40046E-002	4.94450E-004	...........
	157	40.8167	-9.41933E-002	-9.39702E-002	4.89050E-004	...........
	158	41.075	-9.41268E-002	-9.39824E-002	4.90950E-004	...........
	159	41.3333	-9.40573E-002	-9.37811E-002	4.90683E-004	...........
	160	41.5917	-9.39886E-002	-9.37568E-002	4.84850E-004	...........
	161	41.85	-9.39216E-002	-9.39941E-002	4.90283E-004	...........
	162	42.1083	-9.38754E-002	-9.39742E-002	4.89350E-004	...........
	163	42.3667	-9.38780E-002	-9.42136E-002	4.86983E-004	...........
	164	42.625	-9.39390E-002	-9.44399E-002	4.88583E-004	...........
	165	42.8833	-9.40486E-002	-9.43115E-002	4.87117E-004	...........
	166	43.1417	-9.41748E-002	-9.43047E-002	4.84517E-004	...........
	167	43.4	-9.42704E-002	-9.42706E-002	4.85683E-004	...........
	168	43.6583	-9.43106E-002	-9.42410E-002	4.83850E-004	...........
	169	43.9167	-9.43061E-002	-9.41975E-002	4.86183E-004	...........
	170	44.175	-9.42790E-002	-9.41892E-002	4.83850E-004	...........
	171	44.4333	-9.42465E-002	-9.42106E-002	4.82517E-004	...........
	172	44.6917	-9.42216E-002	-9.42605E-002	4.86050E-004	...........
	173	44.95	-9.42141E-002	-9.43113E-002	4.85450E-004	...........
	174	45.2083	-9.42279E-002	-9.43362E-002	4.80550E-004	...........
	175	45.4667	-9.42582E-002	-9.43775E-002	4.83983E-004	...........
	176	45.725	-9.42959E-002	-9.44013E-002	4.84783E-004	...........
	177	45.9833	-9.43333E-002	-9.44141E-002	4.84717E-004	...........
	178	46.2417	-9.43656E-002	-9.44115E-002	4.83683E-004	...........
	179	46.5	-9.43885E-002	-9.43514E-002	4.85983E-004	...........
	180	46.7583	-9.43970E-002	-9.43480E-002	4.89150E-004	...........
	181	47.0167	-9.43905E-002	-9.43799E-002	4.89717E-004	...........
	182	47.275	-9.43777E-002	-9.43679E-002	4.88517E-004	...........
	183	47.5333	-9.43687E-002	-9.43448E-002	4.84950E-004	...........
	184	47.7917	-9.43630E-002	-9.42894E-002	4.87083E-004	...........
	185	48.05	-9.43523E-002	-9.42552E-002	4.85983E-004	...........
	186	48.3083	-9.43308E-002	-9.42546E-002	4.89350E-004	...........
	187	48.5667	-9.43016E-002	-9.41878E-002	4.88883E-004	...........
	188	48.825	-9.42691E-002	-9.41395E-002	4.90416E-004	...........
	189	49.0833	-9.42352E-002	-9.42064E-002	4.90383E-004	...........
	190	49.3417	-9.42066E-002	-9.42518E-002	4.88917E-004	...........
	191	49.6	-9.41962E-002	-9.42756E-002	4.92516E-004	...........
	192	49.8583	-9.42075E-002	-9.42322E-002	4.93450E-004	...........
	193	50.1167	-9.42279E-002	-9.42445E-002	4.96450E-004	...........
	194	50.375	-9.42425E-002	-9.42560E-002	4.88350E-004	...........
	195	50.6333	-9.42475E-002	-9.42228E-002	4.90050E-004	...........
	196	50.8917	-9.42455E-002	-9.41775E-002	4.90917E-004	...........
	197	51.15	-9.42363E-002	-9.42122E-002	4.91183E-004	...........
	198	51.4083	-9.42256E-002	-9.43754E-002	4.88250E-004	...........
	199	51.6667	-9.42304E-002	-9.43595E-002	4.84550E-004	...........
	200	51.925	-9.42622E-002	-9.44316E-002	4.85350E-004	...........
	201	52.1833	-9.43118E-002	-9.44188E-002	4.84017E-004	...........
	202	52.4417	-9.43620E-002	-9.44963E-002	4.84250E-004	...........
	203	52.7	-9.44042E-002	-9.44730E-002	4.84617E-004	...........
	204	52.9583	-9.44308E-002	-9.41340E-002	4.84583E-004	...........
	205	53.2167	-9.44176E-002	-9.40156E-002	4.84183E-004	...........
	206	53.475	-9.43404E-002	-9.38962E-002	4.90717E-004	...........
	207	53.7333	-9.42133E-002	-9.39822E-002	4.86783E-004	...........
	208	53.9917	-9.40907E-002	-9.41945E-002	4.89617E-004	...........
	209	54.25	-9.40337E-002	-9.44487E-002	4.84883E-004	...........
	210	54.5083	-9.40735E-002	-9.44689E-002	4.86583E-004	...........
	211	54.7667	-9.41886E-002	-9.45176E-002	4.88550E-004	...........
	212	55.025	-9.43228E-002	-9.45523E-002	4.85050E-004	...........
	213	55.2833	-9.44308E-002	-9.45726E-002	4.81483E-004	...........
	214	55.5417	-9.45025E-002	-9.46433E-002	4.83250E-004	...........
	215	55.8	-9.45498E-002	-9.46330E-002	4.84650E-004	...........
	216	56.0583	-9.45861E-002	-9.46884E-002	4.85450E-004	...........
	217	56.3167	-9.46172E-002	-9.46629E-002	4.85317E-004	...........
	218	56.575	-9.46425E-002	-9.46719E-002	4.86117E-004	...........
	219	56.8333	-9.46606E-002	-9.47242E-002	4.81183E-004	...........
	220	57.0917	-9.46736E-002	-9.46824E-002	4.81683E-004	...........
	221	57.35	-9.46841E-002	-9.46784E-002	4.83050E-004	...........
	222	57.6083	-9.46896E-002	-9.46694E-002	4.80483E-004	...........
	223	57.8667	-9.46891E-002	-9.47297E-002	4.84783E-004	...........
	224	58.125	-9.46882E-002	-9.46939E-002	4.82417E-004	...........
	225	58.3833	-9.46914E-002	-9.46842E-002	4.86283E-004	...........
	226	58.6417	-9.46960E-002	-9.47195E-002	4.82950E-004	...........
	227	58.9	-9.47001E-002	-9.47734E-002	4.83717E-004	...........
	228	59.1583	-9.47098E-002	-9.47939E-002	4.90416E-004	...........
	229	59.4167	-9.47295E-002	-9.47854E-002	4.81350E-004	...........
	230	59.675	-9.47542E-002	-9.48056E-002	4.87350E-004	...........
	231	59.9333	-9.47762E-002	-9.48399E-002	4.86283E-004	...........
	232	60.1917	-9.47946E-002	-9.48575E-002	4.88650E-004	...........
	233	60.45	-9.48473E-002	-9.66685E-002	4.88350E-004	...........
	234	60.7083	-9.50588E-002	-9.73904E-002	4.83550E-004	...........
	235	60.9667	-9.55508E-002	-9.77428E-002	4.82383E-004	...........
	236	61.225	-9.62595E-002	-9.78913E-002	4.87717E-004	...........
	237	61.4833	-9.69623E-002	-9.79677E-002	4.86950E-004	...........
	238	61.7417	-9.74840E-002	-9.79920E-002	4.87917E-004	...........
	239	62	-9.77907E-002	-9.80096E-002	4.85383E-004	...........
	240	62.2583	-9.79371E-002	-9.79919E-002	4.88217E-004	...........
	241	62.5167	-9.79923E-002	-9.79991E-002	4.82550E-004	...........
	242	62.775	-9.80073E-002	-9.80738E-002	4.83617E-004	...........
	243	63.0333	-9.80152E-002	-9.81518E-002	4.90283E-004	...........
	244	63.2917	-9.80369E-002	-9.81950E-002	4.90117E-004	...........
	245	63.55	-9.80792E-002	-9.82984E-002	4.89383E-004	...........
	246	63.8083	-9.81378E-002	-9.83520E-002	4.90616E-004	...........
	247	64.0667	-9.82044E-002	-9.83512E-002	4.87083E-004	...........
	248	64.325	-9.82689E-002	-9.84362E-002	4.83183E-004	...........
	249	64.5833	-9.83265E-002	-9.85483E-002	4.81583E-004	...........
	250	64.8417	-9.83845E-002	-9.86391E-002	4.85483E-004	...........
	251	65.1	-9.84516E-002	-9.86019E-002	4.87550E-004	...........
	252	65.3583	-9.85204E-002	-9.86103E-002	4.88383E-004	...........
	253	65.6167	-9.85746E-002	-9.86910E-002	4.88050E-004	...........
	254	65.875	-9.86111E-002	-9.86984E-002	4.83750E-004	...........
	255	66.1333	-9.86412E-002	-9.87826E-002	4.88250E-004	...........
	256	66.3917	-9.86761E-002	-9.88377E-002	4.91116E-004	...........
	257	66.65	-9.87195E-002	-9.88498E-002	4.86650E-004	...........
	258	66.9083	-9.87678E-002	-9.89074E-002	4.86850E-004	...........
	259	67.1667	-9.88147E-002	-9.89272E-002	4.86450E-004	...........
	260	67.425	-9.88599E-002	-9.91302E-002	4.85917E-004	...........
	261	67.6833	-9.89124E-002	-9.90944E-002	4.88217E-004	...........
	262	67.9417	-9.89763E-002	-9.91084E-002	4.82283E-004	...........
	263	68.2	-9.90396E-002	-9.91941E-002	4.88150E-004	...........
	264	68.4583	-9.90920E-002	-9.92541E-002	4.88050E-004	...........
	265	68.7167	-9.91370E-002	-9.91911E-002	4.83550E-004	...........
	266	68.975	-9.91758E-002	-9.92262E-002	4.85550E-004	...........
	267	69.2333	-9.92024E-002	-9.92407E-002	4.89417E-004	...........
	268	69.4917	-9.92179E-002	-9.92755E-002	4.92850E-004	...........
	269	69.75	-9.92304E-002	-9.92700E-002	4.88417E-004	...........
	270	70.0083	-9.92455E-002	-9.93201E-002	4.83083E-004	...........
	271	70.2667	-9.92728E-002	-9.98034E-002	4.83217E-004	...........
	272	70.525	-9.93420E-002	-9.98934E-002	4.82750E-004	...........
	273	70.7833	-9.94745E-002	-9.98623E-002	4.83717E-004	...........
	274	71.0417	-9.96382E-002	-9.98947E-002	4.81017E-004	...........
	275	71.3	-9.97728E-002	-9.98510E-002	4.81917E-004	...........
	276	71.5583	-9.98450E-002	-9.97009E-002	4.78983E-004	...........
	277	71.8167	-9.98521E-002	-9.95606E-002	4.79383E-004	...........
	278	72.075	-9.97996E-002	-9.93882E-002	4.80117E-004	...........
	279	72.3333	-9.97003E-002	-9.93679E-002	4.81117E-004	...........
	280	72.5917	-9.95808E-002	-9.93566E-002	4.86950E-004	...........
	281	72.85	-9.94745E-002	-9.93566E-002	4.88250E-004	...........
	282	73.1083	-9.94035E-002	-9.93600E-002	4.84083E-004	...........
	283	73.3667	-9.93714E-002	-9.95310E-002	4.86050E-004	...........
	284	73.625	-9.93758E-002	-9.94872E-002	4.89483E-004	...........
	285	73.8833	-9.94102E-002	-9.95868E-002	4.87117E-004	...........
	286	74.1417	-9.94599E-002	-9.95867E-002	4.86483E-004	...........
	287	74.4	-9.95100E-002	-9.96125E-002	4.90317E-004	...........
	288	74.6583	-9.95495E-002	-9.94807E-002	4.88983E-004	...........
	289	74.9167	-9.95645E-002	-9.93673E-002	4.87950E-004	...........
	290	75.175	-9.95409E-002	-9.92749E-002	4.82250E-004	...........
	291	75.4333	-9.94790E-002	-9.92702E-002	4.86150E-004	...........
	292	75.6917	-9.94023E-002	-9.93727E-002	4.86450E-004	...........
	293	75.95	-9.93457E-002	-9.94187E-002	4.83383E-004	...........
	294	76.2083	-9.93289E-002	-9.93075E-002	4.81817E-004	...........
	295	76.4667	-9.93371E-002	-9.92564E-002	4.83083E-004	...........
	296	76.725	-9.93389E-002	-9.92806E-002	4.86817E-004	...........
	297	76.9833	-9.93234E-002	-9.93435E-002	4.87117E-004	...........
	298	77.2417	-9.93077E-002	-9.93731E-002	4.90483E-004	...........
	299	77.5	-9.93097E-002	-9.93766E-002	4.86717E-004	...........
	300	77.7583	-9.93304E-002	-9.94758E-002	4.90050E-004	...........
	301	78.0167	-9.93648E-002	-9.95831E-002	4.86817E-004	...........
	302	78.275	-9.94134E-002	-9.95853E-002	4.91116E-004	...........
	303	78.5333	-9.94739E-002	-9.96491E-002	4.87950E-004	...........
	304	78.7917	-9.95366E-002	-9.97240E-002	4.87150E-004	...........
	305	79.05	-9.95971E-002	-9.98381E-002	4.87083E-004	...........
	306	79.3083	-9.96598E-002	-9.98229E-002	4.86317E-004	...........
	307	79.5667	-9.97233E-002	-9.97975E-002	4.88583E-004	...........
	308	79.825	-9.97719E-002	-9.96962E-002	4.85583E-004	...........
	309	80.0833	-9.97884E-002	-9.96936E-002	4.87750E-004	...........
	310	80.3417	-9.97724E-002	-9.97026E-002	4.87717E-004	...........
	311	80.6	-9.97406E-002	-9.96333E-002	4.86783E-004	...........
	312	80.8583	-9.97086E-002	-9.96352E-002	4.86883E-004	...........
	313	81.1167	-9.96823E-002	-9.97108E-002	4.88183E-004	...........
	314	81.375	-9.96679E-002	-9.97354E-002	4.90183E-004	...........
	315	81.6333	-9.96714E-002	-9.96885E-002	4.88850E-004	...........
	316	81.8917	-9.96873E-002	-9.97525E-002	4.92250E-004	...........
	317	82.15	-9.97054E-002	-9.97800E-002	4.90883E-004	...........
	318	82.4083	-9.97258E-002	-9.98804E-002	4.88517E-004	...........
	319	82.6667	-9.97560E-002	-9.98915E-002	4.86517E-004	...........
	320	82.925	-9.97982E-002	-9.99404E-002	4.86050E-004	...........
	321	83.1833	-9.98437E-002	-9.98614E-002	4.87317E-004	...........
	322	83.4417	-9.98781E-002	-9.98856E-002	4.88150E-004	...........
	323	83.7	-9.98935E-002	-9.99166E-002	4.86450E-004	...........
	324	83.9583	-9.98976E-002	-9.99725E-002	4.85583E-004	...........
	325	84.2167	-9.99060E-002	-9.99841E-002	4.84683E-004	...........
	326	84.475	-9.99257E-002	-9.99994E-002	4.88550E-004	...........
	327	84.7333	-9.99533E-002	-1.00099E-001	4.85683E-004	...........
	328	84.9917	-9.99875E-002	-1.00168E-001	4.86683E-004	...........
	329	85.25	-1.00034E-001	-1.00280E-001	4.87883E-004	...........
	330	85.5083	-1.00097E-001	-1.00367E-001	4.86517E-004	...........
	331	85.7667	-1.00175E-001	-1.00420E-001	4.86717E-004	...........
	332	86.025	-1.00260E-001	-1.00463E-001	4.86450E-004	...........
	333	86.2833	-1.00339E-001	-1.00530E-001	4.84450E-004	...........
	334	86.5417	-1.00405E-001	-1.00496E-001	4.83983E-004	...........
	335	86.8	-1.00455E-001	-1.00481E-001	4.82783E-004	...........
	336	87.0583	-1.00485E-001	-1.00482E-001	4.85850E-004	...........
	337	87.3167	-1.00495E-001	-1.00541E-001	4.82850E-004	...........
	338	87.575	-1.00500E-001	-1.00622E-001	4.84283E-004	...........
	339	87.8333	-1.00520E-001	-1.00789E-001	4.87450E-004	...........
	340	88.0917	-1.00568E-001	-1.00817E-001	4.89517E-004	...........
	341	88.35	-1.00642E-001	-1.00864E-001	4.86717E-004	...........
	342	88.6083	-1.00724E-001	-1.00868E-001	4.86717E-004	...........
	343	88.8667	-1.00793E-001	-1.00876E-001	4.87883E-004	...........
	344	89.125	-1.00835E-001	-1.00712E-001	4.86883E-004	...........
	345	89.3833	-1.00842E-001	-1.00648E-001	4.87117E-004	...........
	346	89.6417	-1.00809E-001	-1.00591E-001	4.85717E-004	...........
	347	89.9	-1.00748E-001	-1.00633E-001	4.82683E-004	...........
	348	90.1583	-1.00686E-001	-1.00690E-001	4.87950E-004	...........
	349	90.4167	-1.00651E-001	-1.00711E-001	4.85417E-004	...........
	350	90.675	-1.00650E-001	-1.00750E-001	4.88617E-004	...........
	351	90.9333	-1.00674E-001	-1.00815E-001	4.85683E-004	...........
	352	91.1917	-1.00712E-001	-1.00858E-001	4.85583E-004	...........
	353	91.45	-1.00758E-001	-1.01018E-001	4.89083E-004	...........
	354	91.7083	-1.00818E-001	-1.01062E-001	4.88450E-004	...........
	355	91.9667	-1.00892E-001	-1.01188E-001	4.92516E-004	...........
	356	92.225	-1.00980E-001	-1.01271E-001	4.89783E-004	...........
	357	92.4833	-1.01072E-001	-1.01312E-001	4.85850E-004	...........
	358	92.7417	-1.01161E-001	-1.01314E-001	4.89017E-004	...........
	359	93	-1.01232E-001	-1.01237E-001	4.86283E-004	...........
	360	93.2583	-1.01273E-001	-1.01276E-001	4.87250E-004	...........
	361	93.5167	-1.01294E-001	-1.01759E-001	4.88850E-004	...........
	362	93.775	-1.01339E-001	-1.01798E-001	4.89617E-004	...........
	363	94.0333	-1.01444E-001	-1.01771E-001	4.91416E-004	...........
	364	94.2917	-1.01584E-001	-1.01854E-001	4.90383E-004	...........
	365	94.55	-1.01706E-001	-1.01869E-001	4.94116E-004	...........
	366	94.8083	-1.01786E-001	-1.01881E-001	4.91183E-004	...........
	367	95.067	-1.01833E-001	-1.01821E-001	4.89650E-004	...........
	368	95.325	-1.01853E-001	-1.01750E-001	4.89550E-004	...........
	369	95.583	-1.01847E-001	-1.01780E-001	4.91883E-004	...........
	370	95.842	-1.01821E-001	-1.01717E-001	4.89750E-004	...........
	371	96.1	-1.01791E-001	-1.01750E-001	4.87283E-004	...........
	372	96.358	-1.01766E-001	-1.01769E-001	4.85883E-004	...........
	373	96.617	-1.01752E-001	-1.01722E-001	4.90283E-004	...........
	374	96.875	-1.01745E-001	-1.01649E-001	4.88950E-004	...........
	375	97.133	-1.01733E-001	-1.01631E-001	4.92383E-004	...........
	376	97.392	-1.01710E-001	-1.01723E-001	4.90183E-004	...........
	377	97.65	-1.01690E-001	-1.01832E-001	4.93350E-004	...........
	378	97.908	-1.01697E-001	-1.01885E-001	4.88617E-004	...........
	379	98.167	-1.01738E-001	-1.01946E-001	4.86583E-004	...........
	380	98.425	-1.01803E-001	-1.02038E-001	4.93017E-004	...........
	381	98.683	-1.01876E-001	-1.02121E-001	4.85583E-004	...........
	382	98.942	-1.01952E-001	-1.02204E-001	4.89717E-004	...........
	383	99.2	-1.02031E-001	-1.02246E-001	4.89683E-004	...........
	384	99.458	-1.02108E-001	-1.02307E-001	4.88017E-004	...........
	385	99.717	-1.02178E-001	-1.02259E-001	4.93417E-004	...........
	386	99.975	-1.02229E-001	-1.02208E-001	4.95150E-004	...........
EOC	QUANT	-0.1022294	Open Circuit (V)
PSTATMODEL	IQUANT	4	Pstat Model
PSTATSECTION	LABEL	REF600-24084	Pstat Section
PSTATSERIALNO	LABEL	24084	Pstat Serial Number
CTRLMODE	IQUANT	1	Control Mode
IESTAB	IQUANT	0	I/E Stability
CASPEED	IQUANT	1	Control Amp Speed
CONVENTION	IQUANT	1	Current Convention
ICHRANGE	IQUANT	2	Ich Range
ICHRANGEMODE	TOGGLE	F	Ich Auto Range
ICHOFFSETENABLE	TOGGLE	T	Ich Offset Enable
ICHOFFSET	QUANT	0	Ich Offset (V)
ICHFILTER	IQUANT	3	Ich Filter
VCHRANGE	IQUANT	2	Vch Range
VCHRANGEMODE	TOGGLE	F	Vch Auto Range
VCHOFFSETENABLE	TOGGLE	T	Vch Offset Enable
VCHOFFSET	QUANT	0	Vch Offset (V)
VCHFILTER	IQUANT	3	Vch Filter
ACHRANGE	IQUANT	2	Ach Range
ACHOFFSETENABLE	TOGGLE	F	Ach Offset Enable
ACHOFFSET	QUANT	0	Ach Offset (V)
ACHFILTER	IQUANT	3	Ach Filter
IERANGELOWERLIMIT	IQUANT	1	I/E Range Lower Limit
IERANGEMODE	TOGGLE	F	I/E AutoRange
IERANGE	IQUANT	1	I/E Range
POSFEEDENABLE	TOGGLE	F	Positive Feedback IR Comp
POSFEEDRESISTANCE	QUANT	0	Positive Feedback Resistance (ohm)
ACHSELECT	IQUANT	0	Ach Select
CABLEID	IQUANT	14	Cable ID
DCCALDATE	LABEL	7/17/2015	DC Calibration Date
ACCALDATE	LABEL	7/17/2015	AC Calibration Date
THERMOSELECT	IQUANT	1	Thermo Select
FRAMEWORKVERSION	QUANT	6.25	Framework Version
INSTRUMENTVERSION	LABEL	3.28	Instrument Version
ZCURVE	TABLE
	Pt	Time	Freq	Zreal	Zimag	Zsig	Zmod	Zphz	Idc	Vdc	IERange
	#	s	Hz	ohm	ohm	V	ohm	°	A	V	#
	0	2	1000078	6782.808	-1224.861	1	6892.516	-10.23633	3.148673E-006	0.0025012	8
	1	3	630984.4	6901.579	-839.9862	1	6952.508	-6.939299	2.200723E-006	0.0020654	8
	2	5	398109.4	7020.471	-558.7507	1	7042.671	-4.550509	3.776593E-006	0.0018453	8
	3	6	251203.1	7067.193	-416.7702	1	7079.472	-3.374967	5.210884E-006	0.001703	8
	4	8	158578.1	7105.952	-280.9162	1	7111.502	-2.263868	4.386869E-006	0.0016658	8
	5	9	100078.1	7156.296	-238.1439	1	7160.258	-1.905959	6.070842E-006	0.0003313	7
	6	10	63140.62	7210.207	-214.8403	1	7213.407	-1.70672	5.913696E-006	0.0003135	7
	7	12	39890.62	7265.968	-200.4792	1	7268.733	-1.580477	5.014399E-006	0.0024611	7
	8	13	25171.88	7316.841	-200.8325	1	7319.597	-1.572258	4.776045E-006	0.0023659	7
	9	14	15890.62	7371.662	-212.5688	1	7374.726	-1.65172	5.016501E-006	0.0024516	7
	10	16	10078.13	7435.517	-235.7404	1	7439.253	-1.815934	4.951036E-006	0.0015658	7
	11	17	6328.125	7507.293	-263.1221	1	7511.903	-2.00733	4.884244E-006	0.0024518	7
	12	18	3984.375	7588.227	-294.626	1	7593.944	-2.223491	5.212577E-006	0.0023289	7
	13	20	2527.573	7678.514	-329.7585	1	7685.592	-2.459091	5.662679E-006	0.0018457	7
	14	21	1577.524	7783.377	-372.3595	1	7792.279	-2.738962	6.063724E-006	0.0003101	7
	15	22	998.264	7891.219	-420.2993	1	7902.404	-3.048786	4.70374E-006	0.0021947	7
	16	24	627.7902	8014.256	-483.1989	1	8028.81	-3.450325	5.458573E-006	0.0020997	7
	17	25	397.9953	8142.42	-567.8417	1	8162.197	-3.989273	5.484791E-006	0.0014171	7
	18	27	252.4038	8290.182	-683.3192	1	8318.295	-4.71196	5.486289E-006	0.0014213	7
	19	28	158.3615	8474.953	-843.3907	1	8516.815	-5.683117	5.491254E-006	0.001415	7
	20	29	100.4464	8702.959	-1047.953	1	8765.826	-6.866124	5.495468E-006	0.0014133	7
	21	31	63.3446	9002.917	-1304.386	1	9096.919	-8.243923	5.497491E-006	0.0014084	7
	22	32	39.72458	9398.72	-1605.034	1	9534.78	-9.691	5.505162E-006	0.0014086	7
	23	33	24.93351	9918.22	-1945.124	1	10107.15	-11.09581	5.532927E-006	0.0014051	7
	24	35	15.83615	10549.06	-2280.654	1	10792.78	-12.1993	5.53566E-006	0.0014039	7
	25	36	9.93114	11338.42	-2592.619	1	11631.06	-12.8797	5.522235E-006	0.0014146	7
	26	38	6.317385	12219.09	-2832.524	1	12543.1	-13.0513	5.524624E-006	0.0014188	7
	27	39	3.945707	13233.78	-2978.842	1	13564.9	-12.6855	5.544543E-006	0.0014061	7
	28	42	2.504006	14271.47	-2976.464	1	14578.55	-11.78076	5.562611E-006	0.0014079	7
	29	44	1.584686	15309.1	-2864.883	1	15574.86	-10.5995	5.565897E-006	0.0014266	7
	30	48	0.999041	16286.41	-2613.6	1	16494.79	-9.116943	5.578588E-006	0.0013939	7
	31	52	0.633446	17118.24	-2285.692	1	17270.16	-7.605365	5.533132E-006	-3.477096E-005	7
	32	59	0.400641	17676.45	-2009.468	1	17790.3	-6.48557	5.548822E-006	-2.909663E-005	7
	33	71	0.2520161	18287.95	-1488.931	1	18348.46	-4.654526	5.60362E-006	-3.460682E-005	7
	34	88	0.1588983	19053.33	-1352.063	1	19101.24	-4.059021	5.57481E-006	-4.27088E-005	7
	35	113	0.1001603	19576.76	-1173.047	1	19611.87	-3.429086	5.566056E-006	-3.861872E-005	7
